E(eV) pdos(E) 
-10.000 0.446E-05
-9.999 0.440E-05
-9.998 0.430E-05
-9.997 0.420E-05
-9.996 0.413E-05
-9.995 0.404E-05
-9.994 0.397E-05
-9.993 0.388E-05
-9.992 0.381E-05
-9.991 0.374E-05
-9.990 0.365E-05
-9.989 0.358E-05
-9.988 0.352E-05
-9.987 0.345E-05
-9.986 0.339E-05
-9.985 0.332E-05
-9.984 0.324E-05
-9.983 0.318E-05
-9.982 0.312E-05
-9.981 0.305E-05
-9.980 0.299E-05
-9.979 0.293E-05
-9.978 0.287E-05
-9.977 0.281E-05
-9.976 0.276E-05
-9.975 0.270E-05
-9.974 0.264E-05
-9.973 0.259E-05
-9.972 0.254E-05
-9.971 0.249E-05
-9.970 0.244E-05
-9.969 0.238E-05
-9.968 0.234E-05
-9.967 0.229E-05
-9.966 0.224E-05
-9.965 0.220E-05
-9.964 0.215E-05
-9.963 0.211E-05
-9.962 0.206E-05
-9.961 0.202E-05
-9.960 0.198E-05
-9.959 0.194E-05
-9.958 0.190E-05
-9.957 0.186E-05
-9.956 0.182E-05
-9.955 0.178E-05
-9.954 0.174E-05
-9.953 0.171E-05
-9.952 0.167E-05
-9.951 0.164E-05
-9.950 0.160E-05
-9.949 0.157E-05
-9.948 0.154E-05
-9.947 0.151E-05
-9.946 0.147E-05
-9.945 0.144E-05
-9.944 0.141E-05
-9.943 0.138E-05
-9.942 0.135E-05
-9.941 0.132E-05
-9.940 0.130E-05
-9.939 0.127E-05
-9.938 0.124E-05
-9.937 0.122E-05
-9.936 0.119E-05
-9.935 0.116E-05
-9.934 0.114E-05
-9.933 0.112E-05
-9.932 0.109E-05
-9.931 0.107E-05
-9.930 0.105E-05
-9.929 0.102E-05
-9.928 0.100E-05
-9.927 0.978E-06
-9.926 0.959E-06
-9.925 0.939E-06
-9.924 0.917E-06
-9.923 0.897E-06
-9.922 0.877E-06
-9.921 0.858E-06
-9.920 0.841E-06
-9.919 0.822E-06
-9.918 0.806E-06
-9.917 0.786E-06
-9.916 0.770E-06
-9.915 0.754E-06
-9.914 0.737E-06
-9.913 0.721E-06
-9.912 0.705E-06
-9.911 0.688E-06
-9.910 0.675E-06
-9.909 0.659E-06
-9.908 0.646E-06
-9.907 0.630E-06
-9.906 0.617E-06
-9.905 0.604E-06
-9.904 0.591E-06
-9.903 0.578E-06
-9.902 0.565E-06
-9.901 0.552E-06
-9.900 0.538E-06
-9.899 0.529E-06
-9.898 0.516E-06
-9.897 0.506E-06
-9.896 0.493E-06
-9.895 0.483E-06
-9.894 0.470E-06
-9.893 0.460E-06
-9.892 0.451E-06
-9.891 0.441E-06
-9.890 0.431E-06
-9.889 0.421E-06
-9.888 0.411E-06
-9.887 0.402E-06
-9.886 0.392E-06
-9.885 0.385E-06
-9.884 0.376E-06
-9.883 0.366E-06
-9.882 0.359E-06
-9.881 0.350E-06
-9.880 0.343E-06
-9.879 0.336E-06
-9.878 0.327E-06
-9.877 0.320E-06
-9.876 0.313E-06
-9.875 0.306E-06
-9.874 0.299E-06
-9.873 0.292E-06
-9.872 0.285E-06
-9.871 0.279E-06
-9.870 0.272E-06
-9.869 0.266E-06
-9.868 0.260E-06
-9.867 0.254E-06
-9.866 0.248E-06
-9.865 0.242E-06
-9.864 0.237E-06
-9.863 0.231E-06
-9.862 0.226E-06
-9.861 0.221E-06
-9.860 0.216E-06
-9.859 0.211E-06
-9.858 0.206E-06
-9.857 0.201E-06
-9.856 0.196E-06
-9.855 0.192E-06
-9.854 0.187E-06
-9.853 0.183E-06
-9.852 0.179E-06
-9.851 0.175E-06
-9.850 0.170E-06
-9.849 0.166E-06
-9.848 0.162E-06
-9.847 0.159E-06
-9.846 0.155E-06
-9.845 0.151E-06
-9.844 0.148E-06
-9.843 0.144E-06
-9.842 0.141E-06
-9.841 0.138E-06
-9.840 0.134E-06
-9.839 0.131E-06
-9.838 0.128E-06
-9.837 0.125E-06
-9.836 0.122E-06
-9.835 0.119E-06
-9.834 0.116E-06
-9.833 0.113E-06
-9.832 0.111E-06
-9.831 0.108E-06
-9.830 0.106E-06
-9.829 0.103E-06
-9.828 0.100E-06
-9.827 0.981E-07
-9.826 0.958E-07
-9.825 0.936E-07
-9.824 0.913E-07
-9.823 0.890E-07
-9.822 0.870E-07
-9.821 0.847E-07
-9.820 0.828E-07
-9.819 0.808E-07
-9.818 0.788E-07
-9.817 0.769E-07
-9.816 0.749E-07
-9.815 0.733E-07
-9.814 0.713E-07
-9.813 0.697E-07
-9.812 0.681E-07
-9.811 0.664E-07
-9.810 0.648E-07
-9.809 0.632E-07
-9.808 0.615E-07
-9.807 0.599E-07
-9.806 0.586E-07
-9.805 0.573E-07
-9.804 0.556E-07
-9.803 0.544E-07
-9.802 0.530E-07
-9.801 0.517E-07
-9.800 0.504E-07
-9.799 0.491E-07
-9.798 0.481E-07
-9.797 0.468E-07
-9.796 0.455E-07
-9.795 0.446E-07
-9.794 0.436E-07
-9.793 0.423E-07
-9.792 0.413E-07
-9.791 0.403E-07
-9.790 0.393E-07
-9.789 0.383E-07
-9.788 0.373E-07
-9.787 0.364E-07
-9.786 0.354E-07
-9.785 0.347E-07
-9.784 0.337E-07
-9.783 0.328E-07
-9.782 0.320E-07
-9.781 0.313E-07
-9.780 0.305E-07
-9.779 0.297E-07
-9.778 0.289E-07
-9.777 0.282E-07
-9.776 0.275E-07
-9.775 0.268E-07
-9.774 0.261E-07
-9.773 0.255E-07
-9.772 0.248E-07
-9.771 0.242E-07
-9.770 0.236E-07
-9.769 0.230E-07
-9.768 0.224E-07
-9.767 0.218E-07
-9.766 0.213E-07
-9.765 0.207E-07
-9.764 0.202E-07
-9.763 0.197E-07
-9.762 0.192E-07
-9.761 0.187E-07
-9.760 0.182E-07
-9.759 0.177E-07
-9.758 0.173E-07
-9.757 0.168E-07
-9.756 0.164E-07
-9.755 0.160E-07
-9.754 0.156E-07
-9.753 0.152E-07
-9.752 0.148E-07
-9.751 0.144E-07
-9.750 0.140E-07
-9.749 0.136E-07
-9.748 0.133E-07
-9.747 0.130E-07
-9.746 0.126E-07
-9.745 0.123E-07
-9.744 0.120E-07
-9.743 0.116E-07
-9.742 0.114E-07
-9.741 0.111E-07
-9.740 0.108E-07
-9.739 0.105E-07
-9.738 0.102E-07
-9.737 0.995E-08
-9.736 0.968E-08
-9.735 0.942E-08
-9.734 0.919E-08
-9.733 0.893E-08
-9.732 0.870E-08
-9.731 0.847E-08
-9.730 0.824E-08
-9.729 0.804E-08
-9.728 0.782E-08
-9.727 0.762E-08
-9.726 0.742E-08
-9.725 0.722E-08
-9.724 0.703E-08
-9.723 0.683E-08
-9.722 0.667E-08
-9.721 0.647E-08
-9.720 0.631E-08
-9.719 0.614E-08
-9.718 0.598E-08
-9.717 0.581E-08
-9.716 0.565E-08
-9.715 0.552E-08
-9.714 0.535E-08
-9.713 0.522E-08
-9.712 0.506E-08
-9.711 0.493E-08
-9.710 0.480E-08
-9.709 0.466E-08
-9.708 0.454E-08
-9.707 0.443E-08
-9.706 0.430E-08
-9.705 0.421E-08
-9.704 0.407E-08
-9.703 0.397E-08
-9.702 0.385E-08
-9.701 0.375E-08
-9.700 0.365E-08
-9.699 0.355E-08
-9.698 0.345E-08
-9.697 0.335E-08
-9.696 0.327E-08
-9.695 0.318E-08
-9.694 0.309E-08
-9.693 0.301E-08
-9.692 0.293E-08
-9.691 0.285E-08
-9.690 0.277E-08
-9.689 0.269E-08
-9.688 0.262E-08
-9.687 0.255E-08
-9.686 0.248E-08
-9.685 0.241E-08
-9.684 0.234E-08
-9.683 0.228E-08
-9.682 0.221E-08
-9.681 0.215E-08
-9.680 0.210E-08
-9.679 0.204E-08
-9.678 0.198E-08
-9.677 0.192E-08
-9.676 0.187E-08
-9.675 0.182E-08
-9.674 0.177E-08
-9.673 0.172E-08
-9.672 0.167E-08
-9.671 0.163E-08
-9.670 0.158E-08
-9.669 0.154E-08
-9.668 0.149E-08
-9.667 0.145E-08
-9.666 0.141E-08
-9.665 0.137E-08
-9.664 0.133E-08
-9.663 0.129E-08
-9.662 0.126E-08
-9.661 0.122E-08
-9.660 0.119E-08
-9.659 0.116E-08
-9.658 0.112E-08
-9.657 0.109E-08
-9.656 0.106E-08
-9.655 0.103E-08
-9.654 0.100E-08
-9.653 0.971E-09
-9.652 0.945E-09
-9.651 0.919E-09
-9.650 0.893E-09
-9.649 0.866E-09
-9.648 0.843E-09
-9.647 0.817E-09
-9.646 0.794E-09
-9.645 0.771E-09
-9.644 0.751E-09
-9.643 0.728E-09
-9.642 0.708E-09
-9.641 0.688E-09
-9.640 0.669E-09
-9.639 0.649E-09
-9.638 0.629E-09
-9.637 0.613E-09
-9.636 0.593E-09
-9.635 0.577E-09
-9.634 0.560E-09
-9.633 0.544E-09
-9.632 0.527E-09
-9.631 0.514E-09
-9.630 0.498E-09
-9.629 0.484E-09
-9.628 0.471E-09
-9.627 0.455E-09
-9.626 0.442E-09
-9.625 0.429E-09
-9.624 0.418E-09
-9.623 0.406E-09
-9.622 0.392E-09
-9.621 0.382E-09
-9.620 0.373E-09
-9.619 0.359E-09
-9.618 0.349E-09
-9.617 0.340E-09
-9.616 0.329E-09
-9.615 0.320E-09
-9.614 0.310E-09
-9.613 0.301E-09
-9.612 0.293E-09
-9.611 0.284E-09
-9.610 0.275E-09
-9.609 0.268E-09
-9.608 0.260E-09
-9.607 0.252E-09
-9.606 0.244E-09
-9.605 0.237E-09
-9.604 0.230E-09
-9.603 0.223E-09
-9.602 0.217E-09
-9.601 0.210E-09
-9.600 0.204E-09
-9.599 0.198E-09
-9.598 0.192E-09
-9.597 0.186E-09
-9.596 0.181E-09
-9.595 0.176E-09
-9.594 0.170E-09
-9.593 0.165E-09
-9.592 0.160E-09
-9.591 0.155E-09
-9.590 0.151E-09
-9.589 0.146E-09
-9.588 0.142E-09
-9.587 0.138E-09
-9.586 0.133E-09
-9.585 0.129E-09
-9.584 0.125E-09
-9.583 0.122E-09
-9.582 0.118E-09
-9.581 0.115E-09
-9.580 0.111E-09
-9.579 0.108E-09
-9.578 0.104E-09
-9.577 0.101E-09
-9.576 0.984E-10
-9.575 0.952E-10
-9.574 0.925E-10
-9.573 0.896E-10
-9.572 0.869E-10
-9.571 0.842E-10
-9.570 0.816E-10
-9.569 0.793E-10
-9.568 0.767E-10
-9.567 0.744E-10
-9.566 0.721E-10
-9.565 0.701E-10
-9.564 0.678E-10
-9.563 0.658E-10
-9.562 0.638E-10
-9.561 0.618E-10
-9.560 0.598E-10
-9.559 0.582E-10
-9.558 0.562E-10
-9.557 0.545E-10
-9.556 0.529E-10
-9.555 0.512E-10
-9.554 0.496E-10
-9.553 0.480E-10
-9.552 0.466E-10
-9.551 0.453E-10
-9.550 0.437E-10
-9.549 0.423E-10
-9.548 0.410E-10
-9.547 0.397E-10
-9.546 0.387E-10
-9.545 0.374E-10
-9.544 0.364E-10
-9.543 0.351E-10
-9.542 0.341E-10
-9.541 0.329E-10
-9.540 0.319E-10
-9.539 0.309E-10
-9.538 0.299E-10
-9.537 0.290E-10
-9.536 0.281E-10
-9.535 0.272E-10
-9.534 0.264E-10
-9.533 0.255E-10
-9.532 0.247E-10
-9.531 0.240E-10
-9.530 0.232E-10
-9.529 0.225E-10
-9.528 0.218E-10
-9.527 0.211E-10
-9.526 0.204E-10
-9.525 0.198E-10
-9.524 0.191E-10
-9.523 0.185E-10
-9.522 0.179E-10
-9.521 0.174E-10
-9.520 0.168E-10
-9.519 0.163E-10
-9.518 0.158E-10
-9.517 0.153E-10
-9.516 0.148E-10
-9.515 0.143E-10
-9.514 0.138E-10
-9.513 0.134E-10
-9.512 0.130E-10
-9.511 0.126E-10
-9.510 0.122E-10
-9.509 0.118E-10
-9.508 0.114E-10
-9.507 0.110E-10
-9.506 0.107E-10
-9.505 0.103E-10
-9.504 0.100E-10
-9.503 0.968E-11
-9.502 0.938E-11
-9.501 0.908E-11
-9.500 0.878E-11
-9.499 0.848E-11
-9.498 0.822E-11
-9.497 0.796E-11
-9.496 0.769E-11
-9.495 0.746E-11
-9.494 0.719E-11
-9.493 0.696E-11
-9.492 0.673E-11
-9.491 0.653E-11
-9.490 0.630E-11
-9.489 0.610E-11
-9.488 0.590E-11
-9.487 0.571E-11
-9.486 0.554E-11
-9.485 0.534E-11
-9.484 0.517E-11
-9.483 0.501E-11
-9.482 0.484E-11
-9.481 0.468E-11
-9.480 0.451E-11
-9.479 0.438E-11
-9.478 0.425E-11
-9.477 0.408E-11
-9.476 0.395E-11
-9.475 0.382E-11
-9.474 0.368E-11
-9.473 0.358E-11
-9.472 0.345E-11
-9.471 0.335E-11
-9.470 0.323E-11
-9.469 0.313E-11
-9.468 0.302E-11
-9.467 0.292E-11
-9.466 0.282E-11
-9.465 0.273E-11
-9.464 0.264E-11
-9.463 0.255E-11
-9.462 0.246E-11
-9.461 0.238E-11
-9.460 0.230E-11
-9.459 0.222E-11
-9.458 0.215E-11
-9.457 0.208E-11
-9.456 0.201E-11
-9.455 0.194E-11
-9.454 0.187E-11
-9.453 0.181E-11
-9.452 0.175E-11
-9.451 0.169E-11
-9.450 0.163E-11
-9.449 0.158E-11
-9.448 0.152E-11
-9.447 0.147E-11
-9.446 0.142E-11
-9.445 0.137E-11
-9.444 0.133E-11
-9.443 0.128E-11
-9.442 0.124E-11
-9.441 0.119E-11
-9.440 0.115E-11
-9.439 0.111E-11
-9.438 0.107E-11
-9.437 0.104E-11
-9.436 0.100E-11
-9.435 0.968E-12
-9.434 0.935E-12
-9.433 0.902E-12
-9.432 0.868E-12
-9.431 0.838E-12
-9.430 0.809E-12
-9.429 0.782E-12
-9.428 0.755E-12
-9.427 0.729E-12
-9.426 0.703E-12
-9.425 0.679E-12
-9.424 0.653E-12
-9.423 0.630E-12
-9.422 0.609E-12
-9.421 0.586E-12
-9.420 0.566E-12
-9.419 0.546E-12
-9.418 0.526E-12
-9.417 0.507E-12
-9.416 0.490E-12
-9.415 0.473E-12
-9.414 0.454E-12
-9.413 0.437E-12
-9.412 0.424E-12
-9.411 0.407E-12
-9.410 0.394E-12
-9.409 0.377E-12
-9.408 0.364E-12
-9.407 0.350E-12
-9.406 0.337E-12
-9.405 0.325E-12
-9.404 0.313E-12
-9.403 0.302E-12
-9.402 0.291E-12
-9.401 0.280E-12
-9.400 0.270E-12
-9.399 0.260E-12
-9.398 0.249E-12
-9.397 0.240E-12
-9.396 0.231E-12
-9.395 0.223E-12
-9.394 0.214E-12
-9.393 0.206E-12
-9.392 0.198E-12
-9.391 0.191E-12
-9.390 0.183E-12
-9.389 0.176E-12
-9.388 0.169E-12
-9.387 0.162E-12
-9.386 0.156E-12
-9.385 0.150E-12
-9.384 0.144E-12
-9.383 0.139E-12
-9.382 0.132E-12
-9.381 0.127E-12
-9.380 0.122E-12
-9.379 0.117E-12
-9.378 0.113E-12
-9.377 0.108E-12
-9.376 0.104E-12
-9.375 0.992E-13
-9.374 0.945E-13
-9.373 0.905E-13
-9.372 0.872E-13
-9.371 0.835E-13
-9.370 0.802E-13
-9.369 0.768E-13
-9.368 0.738E-13
-9.367 0.699E-13
-9.366 0.668E-13
-9.365 0.638E-13
-9.364 0.612E-13
-9.363 0.585E-13
-9.362 0.558E-13
-9.361 0.528E-13
-9.360 0.505E-13
-9.359 0.482E-13
-9.358 0.461E-13
-9.357 0.441E-13
-9.356 0.421E-13
-9.355 0.401E-13
-9.354 0.381E-13
-9.353 0.358E-13
-9.352 0.338E-13
-9.351 0.323E-13
-9.350 0.309E-13
-9.349 0.295E-13
-9.348 0.276E-13
-9.347 0.263E-13
-9.346 0.246E-13
-9.345 0.234E-13
-9.344 0.219E-13
-9.343 0.208E-13
-9.342 0.199E-13
-9.341 0.184E-13
-9.340 0.171E-13
-9.339 0.164E-13
-9.338 0.155E-13
-9.337 0.147E-13
-9.336 0.134E-13
-9.335 0.124E-13
-9.334 0.117E-13
-9.333 0.108E-13
-9.332 0.103E-13
-9.331 0.986E-14
-9.330 0.861E-14
-9.329 0.790E-14
-9.328 0.737E-14
-9.327 0.691E-14
-9.326 0.635E-14
-9.325 0.586E-14
-9.324 0.517E-14
-9.323 0.492E-14
-9.322 0.433E-14
-9.321 0.371E-14
-9.320 0.346E-14
-9.319 0.324E-14
-9.318 0.286E-14
-9.317 0.242E-14
-9.316 0.198E-14
-9.315 0.189E-14
-9.314 0.161E-14
-9.313 0.142E-14
-9.312 0.105E-14
-9.311 0.895E-15
-9.310 0.734E-15
-9.309 0.604E-15
-9.308 0.394E-15
-9.307 0.312E-15
-9.306 0.179E-15
-9.305 0.924E-16
-9.304 0.185E-16
-9.303 0.000E+00
-9.302 0.000E+00
-9.301 0.000E+00
-9.300 0.000E+00
-9.299 0.000E+00
-9.298 0.000E+00
-9.297 0.000E+00
-9.296 0.000E+00
-9.295 0.000E+00
-9.294 0.000E+00
-9.293 0.000E+00
-9.292 0.000E+00
-9.291 0.000E+00
-9.290 0.000E+00
-9.289 0.000E+00
-9.288 0.000E+00
-9.287 0.000E+00
-9.286 0.000E+00
-9.285 0.000E+00
-9.284 0.000E+00
-9.283 0.000E+00
-9.282 0.000E+00
-9.281 0.000E+00
-9.280 0.000E+00
-9.279 0.000E+00
-9.278 0.000E+00
-9.277 0.000E+00
-9.276 0.000E+00
-9.275 0.000E+00
-9.274 0.000E+00
-9.273 0.000E+00
-9.272 0.000E+00
-9.271 0.000E+00
-9.270 0.000E+00
-9.269 0.000E+00
-9.268 0.000E+00
-9.267 0.000E+00
-9.266 0.000E+00
-9.265 0.000E+00
-9.264 0.000E+00
-9.263 0.000E+00
-9.262 0.000E+00
-9.261 0.000E+00
-9.260 0.000E+00
-9.259 0.000E+00
-9.258 0.000E+00
-9.257 0.000E+00
-9.256 0.000E+00
-9.255 0.000E+00
-9.254 0.000E+00
-9.253 0.000E+00
-9.252 0.000E+00
-9.251 0.000E+00
-9.250 0.000E+00
-9.249 0.000E+00
-9.248 0.000E+00
-9.247 0.000E+00
-9.246 0.000E+00
-9.245 0.000E+00
-9.244 0.000E+00
-9.243 0.000E+00
-9.242 0.000E+00
-9.241 0.000E+00
-9.240 0.000E+00
-9.239 0.000E+00
-9.238 0.000E+00
-9.237 0.000E+00
-9.236 0.000E+00
-9.235 0.000E+00
-9.234 0.000E+00
-9.233 0.000E+00
-9.232 0.000E+00
-9.231 0.000E+00
-9.230 0.000E+00
-9.229 0.000E+00
-9.228 0.000E+00
-9.227 0.000E+00
-9.226 0.000E+00
-9.225 0.000E+00
-9.224 0.000E+00
-9.223 0.000E+00
-9.222 0.000E+00
-9.221 0.000E+00
-9.220 0.000E+00
-9.219 0.000E+00
-9.218 0.000E+00
-9.217 0.000E+00
-9.216 0.000E+00
-9.215 0.000E+00
-9.214 0.000E+00
-9.213 0.000E+00
-9.212 0.000E+00
-9.211 0.000E+00
-9.210 0.000E+00
-9.209 0.000E+00
-9.208 0.000E+00
-9.207 0.000E+00
-9.206 0.000E+00
-9.205 0.000E+00
-9.204 0.000E+00
-9.203 0.000E+00
-9.202 0.000E+00
-9.201 0.000E+00
-9.200 0.000E+00
-9.199 0.000E+00
-9.198 0.000E+00
-9.197 0.000E+00
-9.196 0.000E+00
-9.195 0.000E+00
-9.194 0.000E+00
-9.193 0.000E+00
-9.192 0.000E+00
-9.191 0.000E+00
-9.190 0.000E+00
-9.189 0.000E+00
-9.188 0.000E+00
-9.187 0.000E+00
-9.186 0.000E+00
-9.185 0.000E+00
-9.184 0.000E+00
-9.183 0.000E+00
-9.182 0.000E+00
-9.181 0.000E+00
-9.180 0.000E+00
-9.179 0.000E+00
-9.178 0.000E+00
-9.177 0.000E+00
-9.176 0.000E+00
-9.175 0.000E+00
-9.174 0.000E+00
-9.173 0.000E+00
-9.172 0.000E+00
-9.171 0.000E+00
-9.170 0.000E+00
-9.169 0.000E+00
-9.168 0.000E+00
-9.167 0.000E+00
-9.166 0.000E+00
-9.165 0.000E+00
-9.164 0.000E+00
-9.163 0.000E+00
-9.162 0.000E+00
-9.161 0.000E+00
-9.160 0.000E+00
-9.159 0.000E+00
-9.158 0.000E+00
-9.157 0.000E+00
-9.156 0.000E+00
-9.155 0.000E+00
-9.154 0.000E+00
-9.153 0.000E+00
-9.152 0.000E+00
-9.151 0.000E+00
-9.150 0.000E+00
-9.149 0.000E+00
-9.148 0.000E+00
-9.147 0.000E+00
-9.146 0.000E+00
-9.145 0.000E+00
-9.144 0.000E+00
-9.143 0.000E+00
-9.142 0.000E+00
-9.141 0.000E+00
-9.140 0.000E+00
-9.139 0.000E+00
-9.138 0.000E+00
-9.137 0.000E+00
-9.136 0.000E+00
-9.135 0.000E+00
-9.134 0.000E+00
-9.133 0.000E+00
-9.132 0.000E+00
-9.131 0.000E+00
-9.130 0.000E+00
-9.129 0.000E+00
-9.128 0.000E+00
-9.127 0.000E+00
-9.126 0.000E+00
-9.125 0.000E+00
-9.124 0.000E+00
-9.123 0.000E+00
-9.122 0.000E+00
-9.121 0.000E+00
-9.120 0.000E+00
-9.119 0.000E+00
-9.118 0.000E+00
-9.117 0.000E+00
-9.116 0.000E+00
-9.115 0.000E+00
-9.114 0.000E+00
-9.113 0.000E+00
-9.112 0.000E+00
-9.111 0.000E+00
-9.110 0.000E+00
-9.109 0.000E+00
-9.108 0.000E+00
-9.107 0.000E+00
-9.106 0.000E+00
-9.105 0.000E+00
-9.104 0.000E+00
-9.103 0.000E+00
-9.102 0.000E+00
-9.101 0.000E+00
-9.100 0.000E+00
-9.099 0.000E+00
-9.098 0.000E+00
-9.097 0.000E+00
-9.096 0.000E+00
-9.095 0.000E+00
-9.094 0.000E+00
-9.093 0.000E+00
-9.092 0.000E+00
-9.091 0.000E+00
-9.090 0.000E+00
-9.089 0.000E+00
-9.088 0.000E+00
-9.087 0.000E+00
-9.086 0.000E+00
-9.085 0.000E+00
-9.084 0.000E+00
-9.083 0.000E+00
-9.082 0.000E+00
-9.081 0.000E+00
-9.080 0.000E+00
-9.079 0.000E+00
-9.078 0.000E+00
-9.077 0.000E+00
-9.076 0.000E+00
-9.075 0.000E+00
-9.074 0.000E+00
-9.073 0.000E+00
-9.072 0.000E+00
-9.071 0.000E+00
-9.070 0.000E+00
-9.069 0.000E+00
-9.068 0.000E+00
-9.067 0.000E+00
-9.066 0.000E+00
-9.065 0.000E+00
-9.064 0.000E+00
-9.063 0.000E+00
-9.062 0.000E+00
-9.061 0.000E+00
-9.060 0.000E+00
-9.059 0.000E+00
-9.058 0.000E+00
-9.057 0.000E+00
-9.056 0.000E+00
-9.055 0.000E+00
-9.054 0.000E+00
-9.053 0.000E+00
-9.052 0.000E+00
-9.051 0.000E+00
-9.050 0.000E+00
-9.049 0.000E+00
-9.048 0.000E+00
-9.047 0.000E+00
-9.046 0.000E+00
-9.045 0.000E+00
-9.044 0.000E+00
-9.043 0.000E+00
-9.042 0.000E+00
-9.041 0.000E+00
-9.040 0.000E+00
-9.039 0.000E+00
-9.038 0.000E+00
-9.037 0.000E+00
-9.036 0.000E+00
-9.035 0.000E+00
-9.034 0.000E+00
-9.033 0.000E+00
-9.032 0.000E+00
-9.031 0.000E+00
-9.030 0.000E+00
-9.029 0.000E+00
-9.028 0.000E+00
-9.027 0.000E+00
-9.026 0.000E+00
-9.025 0.000E+00
-9.024 0.000E+00
-9.023 0.000E+00
-9.022 0.000E+00
-9.021 0.000E+00
-9.020 0.000E+00
-9.019 0.000E+00
-9.018 0.000E+00
-9.017 0.000E+00
-9.016 0.000E+00
-9.015 0.000E+00
-9.014 0.000E+00
-9.013 0.000E+00
-9.012 0.000E+00
-9.011 0.000E+00
-9.010 0.000E+00
-9.009 0.000E+00
-9.008 0.000E+00
-9.007 0.000E+00
-9.006 0.000E+00
-9.005 0.000E+00
-9.004 0.000E+00
-9.003 0.000E+00
-9.002 0.000E+00
-9.001 0.000E+00
-9.000 0.000E+00
-8.999 0.000E+00
-8.998 0.000E+00
-8.997 0.000E+00
-8.996 0.000E+00
-8.995 0.000E+00
-8.994 0.000E+00
-8.993 0.000E+00
-8.992 0.000E+00
-8.991 0.000E+00
-8.990 0.000E+00
-8.989 0.000E+00
-8.988 0.000E+00
-8.987 0.000E+00
-8.986 0.000E+00
-8.985 0.000E+00
-8.984 0.000E+00
-8.983 0.000E+00
-8.982 0.000E+00
-8.981 0.000E+00
-8.980 0.000E+00
-8.979 0.000E+00
-8.978 0.000E+00
-8.977 0.000E+00
-8.976 0.000E+00
-8.975 0.000E+00
-8.974 0.000E+00
-8.973 0.000E+00
-8.972 0.000E+00
-8.971 0.000E+00
-8.970 0.000E+00
-8.969 0.000E+00
-8.968 0.000E+00
-8.967 0.000E+00
-8.966 0.000E+00
-8.965 0.000E+00
-8.964 0.000E+00
-8.963 0.000E+00
-8.962 0.000E+00
-8.961 0.000E+00
-8.960 0.000E+00
-8.959 0.000E+00
-8.958 0.000E+00
-8.957 0.000E+00
-8.956 0.000E+00
-8.955 0.000E+00
-8.954 0.000E+00
-8.953 0.000E+00
-8.952 0.000E+00
-8.951 0.000E+00
-8.950 0.000E+00
-8.949 0.000E+00
-8.948 0.000E+00
-8.947 0.000E+00
-8.946 0.000E+00
-8.945 0.000E+00
-8.944 0.000E+00
-8.943 0.000E+00
-8.942 0.000E+00
-8.941 0.000E+00
-8.940 0.000E+00
-8.939 0.000E+00
-8.938 0.000E+00
-8.937 0.000E+00
-8.936 0.000E+00
-8.935 0.000E+00
-8.934 0.000E+00
-8.933 0.000E+00
-8.932 0.000E+00
-8.931 0.000E+00
-8.930 0.000E+00
-8.929 0.000E+00
-8.928 0.000E+00
-8.927 0.000E+00
-8.926 0.000E+00
-8.925 0.000E+00
-8.924 0.000E+00
-8.923 0.000E+00
-8.922 0.000E+00
-8.921 0.000E+00
-8.920 0.000E+00
-8.919 0.000E+00
-8.918 0.000E+00
-8.917 0.000E+00
-8.916 0.000E+00
-8.915 0.000E+00
-8.914 0.000E+00
-8.913 0.000E+00
-8.912 0.000E+00
-8.911 0.000E+00
-8.910 0.000E+00
-8.909 0.000E+00
-8.908 0.000E+00
-8.907 0.000E+00
-8.906 0.000E+00
-8.905 0.000E+00
-8.904 0.000E+00
-8.903 0.000E+00
-8.902 0.000E+00
-8.901 0.000E+00
-8.900 0.000E+00
-8.899 0.000E+00
-8.898 0.000E+00
-8.897 0.000E+00
-8.896 0.000E+00
-8.895 0.000E+00
-8.894 0.000E+00
-8.893 0.000E+00
-8.892 0.000E+00
-8.891 0.000E+00
-8.890 0.000E+00
-8.889 0.000E+00
-8.888 0.000E+00
-8.887 0.000E+00
-8.886 0.000E+00
-8.885 0.000E+00
-8.884 0.000E+00
-8.883 0.000E+00
-8.882 0.000E+00
-8.881 0.000E+00
-8.880 0.000E+00
-8.879 0.000E+00
-8.878 0.000E+00
-8.877 0.000E+00
-8.876 0.000E+00
-8.875 0.000E+00
-8.874 0.000E+00
-8.873 0.000E+00
-8.872 0.000E+00
-8.871 0.000E+00
-8.870 0.000E+00
-8.869 0.000E+00
-8.868 0.000E+00
-8.867 0.000E+00
-8.866 0.000E+00
-8.865 0.000E+00
-8.864 0.000E+00
-8.863 0.000E+00
-8.862 0.000E+00
-8.861 0.000E+00
-8.860 0.000E+00
-8.859 0.000E+00
-8.858 0.000E+00
-8.857 0.000E+00
-8.856 0.000E+00
-8.855 0.000E+00
-8.854 0.000E+00
-8.853 0.000E+00
-8.852 0.000E+00
-8.851 0.000E+00
-8.850 0.000E+00
-8.849 0.000E+00
-8.848 0.000E+00
-8.847 0.000E+00
-8.846 0.000E+00
-8.845 0.000E+00
-8.844 0.000E+00
-8.843 0.000E+00
-8.842 0.000E+00
-8.841 0.000E+00
-8.840 0.000E+00
-8.839 0.000E+00
-8.838 0.000E+00
-8.837 0.000E+00
-8.836 0.000E+00
-8.835 0.000E+00
-8.834 0.000E+00
-8.833 0.000E+00
-8.832 0.000E+00
-8.831 0.000E+00
-8.830 0.000E+00
-8.829 0.000E+00
-8.828 0.000E+00
-8.827 0.000E+00
-8.826 0.000E+00
