E(eV) dos(E) pdos(E)
-10.000 0.366E-02 0.366E-02
-9.999 0.359E-02 0.359E-02
-9.998 0.352E-02 0.352E-02
-9.997 0.346E-02 0.345E-02
-9.996 0.339E-02 0.339E-02
-9.995 0.332E-02 0.332E-02
-9.994 0.326E-02 0.326E-02
-9.993 0.320E-02 0.320E-02
-9.992 0.314E-02 0.314E-02
-9.991 0.308E-02 0.308E-02
-9.990 0.302E-02 0.302E-02
-9.989 0.296E-02 0.296E-02
-9.988 0.290E-02 0.290E-02
-9.987 0.285E-02 0.285E-02
-9.986 0.279E-02 0.279E-02
-9.985 0.274E-02 0.274E-02
-9.984 0.269E-02 0.268E-02
-9.983 0.263E-02 0.263E-02
-9.982 0.258E-02 0.258E-02
-9.981 0.253E-02 0.253E-02
-9.980 0.248E-02 0.248E-02
-9.979 0.243E-02 0.243E-02
-9.978 0.239E-02 0.239E-02
-9.977 0.234E-02 0.234E-02
-9.976 0.229E-02 0.229E-02
-9.975 0.225E-02 0.225E-02
-9.974 0.221E-02 0.220E-02
-9.973 0.216E-02 0.216E-02
-9.972 0.212E-02 0.212E-02
-9.971 0.208E-02 0.208E-02
-9.970 0.204E-02 0.204E-02
-9.969 0.200E-02 0.200E-02
-9.968 0.196E-02 0.196E-02
-9.967 0.192E-02 0.192E-02
-9.966 0.188E-02 0.188E-02
-9.965 0.184E-02 0.184E-02
-9.964 0.181E-02 0.181E-02
-9.963 0.177E-02 0.177E-02
-9.962 0.174E-02 0.173E-02
-9.961 0.170E-02 0.170E-02
-9.960 0.167E-02 0.167E-02
-9.959 0.163E-02 0.163E-02
-9.958 0.160E-02 0.160E-02
-9.957 0.157E-02 0.157E-02
-9.956 0.154E-02 0.154E-02
-9.955 0.151E-02 0.151E-02
-9.954 0.148E-02 0.148E-02
-9.953 0.145E-02 0.145E-02
-9.952 0.142E-02 0.142E-02
-9.951 0.139E-02 0.139E-02
-9.950 0.136E-02 0.136E-02
-9.949 0.133E-02 0.133E-02
-9.948 0.131E-02 0.131E-02
-9.947 0.128E-02 0.128E-02
-9.946 0.125E-02 0.125E-02
-9.945 0.123E-02 0.123E-02
-9.944 0.120E-02 0.120E-02
-9.943 0.118E-02 0.118E-02
-9.942 0.115E-02 0.115E-02
-9.941 0.113E-02 0.113E-02
-9.940 0.111E-02 0.111E-02
-9.939 0.109E-02 0.108E-02
-9.938 0.106E-02 0.106E-02
-9.937 0.104E-02 0.104E-02
-9.936 0.102E-02 0.102E-02
-9.935 0.999E-03 0.998E-03
-9.934 0.978E-03 0.978E-03
-9.933 0.958E-03 0.958E-03
-9.932 0.938E-03 0.938E-03
-9.931 0.919E-03 0.918E-03
-9.930 0.900E-03 0.899E-03
-9.929 0.881E-03 0.881E-03
-9.928 0.863E-03 0.863E-03
-9.927 0.845E-03 0.845E-03
-9.926 0.827E-03 0.827E-03
-9.925 0.810E-03 0.810E-03
-9.924 0.793E-03 0.793E-03
-9.923 0.777E-03 0.776E-03
-9.922 0.760E-03 0.760E-03
-9.921 0.745E-03 0.744E-03
-9.920 0.729E-03 0.729E-03
-9.919 0.714E-03 0.713E-03
-9.918 0.699E-03 0.698E-03
-9.917 0.684E-03 0.684E-03
-9.916 0.670E-03 0.669E-03
-9.915 0.655E-03 0.655E-03
-9.914 0.642E-03 0.641E-03
-9.913 0.628E-03 0.628E-03
-9.912 0.615E-03 0.614E-03
-9.911 0.602E-03 0.601E-03
-9.910 0.589E-03 0.589E-03
-9.909 0.576E-03 0.576E-03
-9.908 0.564E-03 0.564E-03
-9.907 0.552E-03 0.552E-03
-9.906 0.540E-03 0.540E-03
-9.905 0.529E-03 0.529E-03
-9.904 0.518E-03 0.517E-03
-9.903 0.507E-03 0.506E-03
-9.902 0.496E-03 0.495E-03
-9.901 0.485E-03 0.485E-03
-9.900 0.475E-03 0.474E-03
-9.899 0.464E-03 0.464E-03
-9.898 0.454E-03 0.454E-03
-9.897 0.445E-03 0.444E-03
-9.896 0.435E-03 0.435E-03
-9.895 0.426E-03 0.425E-03
-9.894 0.416E-03 0.416E-03
-9.893 0.407E-03 0.407E-03
-9.892 0.399E-03 0.398E-03
-9.891 0.390E-03 0.390E-03
-9.890 0.382E-03 0.381E-03
-9.889 0.373E-03 0.373E-03
-9.888 0.365E-03 0.365E-03
-9.887 0.357E-03 0.357E-03
-9.886 0.349E-03 0.349E-03
-9.885 0.342E-03 0.342E-03
-9.884 0.334E-03 0.334E-03
-9.883 0.327E-03 0.327E-03
-9.882 0.320E-03 0.320E-03
-9.881 0.313E-03 0.313E-03
-9.880 0.306E-03 0.306E-03
-9.879 0.299E-03 0.299E-03
-9.878 0.293E-03 0.292E-03
-9.877 0.286E-03 0.286E-03
-9.876 0.280E-03 0.280E-03
-9.875 0.274E-03 0.274E-03
-9.874 0.268E-03 0.267E-03
-9.873 0.262E-03 0.262E-03
-9.872 0.256E-03 0.256E-03
-9.871 0.250E-03 0.250E-03
-9.870 0.245E-03 0.245E-03
-9.869 0.239E-03 0.239E-03
-9.868 0.234E-03 0.234E-03
-9.867 0.229E-03 0.229E-03
-9.866 0.224E-03 0.223E-03
-9.865 0.219E-03 0.218E-03
-9.864 0.214E-03 0.214E-03
-9.863 0.209E-03 0.209E-03
-9.862 0.204E-03 0.204E-03
-9.861 0.200E-03 0.200E-03
-9.860 0.195E-03 0.195E-03
-9.859 0.191E-03 0.191E-03
-9.858 0.186E-03 0.186E-03
-9.857 0.182E-03 0.182E-03
-9.856 0.178E-03 0.178E-03
-9.855 0.174E-03 0.174E-03
-9.854 0.170E-03 0.170E-03
-9.853 0.166E-03 0.166E-03
-9.852 0.163E-03 0.162E-03
-9.851 0.159E-03 0.159E-03
-9.850 0.155E-03 0.155E-03
-9.849 0.152E-03 0.152E-03
-9.848 0.148E-03 0.148E-03
-9.847 0.145E-03 0.145E-03
-9.846 0.142E-03 0.142E-03
-9.845 0.138E-03 0.138E-03
-9.844 0.135E-03 0.135E-03
-9.843 0.132E-03 0.132E-03
-9.842 0.129E-03 0.129E-03
-9.841 0.126E-03 0.126E-03
-9.840 0.123E-03 0.123E-03
-9.839 0.120E-03 0.120E-03
-9.838 0.118E-03 0.118E-03
-9.837 0.115E-03 0.115E-03
-9.836 0.112E-03 0.112E-03
-9.835 0.110E-03 0.110E-03
-9.834 0.107E-03 0.107E-03
-9.833 0.105E-03 0.105E-03
-9.832 0.102E-03 0.102E-03
-9.831 0.998E-04 0.998E-04
-9.830 0.975E-04 0.975E-04
-9.829 0.952E-04 0.952E-04
-9.828 0.930E-04 0.930E-04
-9.827 0.909E-04 0.908E-04
-9.826 0.887E-04 0.887E-04
-9.825 0.867E-04 0.866E-04
-9.824 0.846E-04 0.846E-04
-9.823 0.827E-04 0.826E-04
-9.822 0.807E-04 0.807E-04
-9.821 0.788E-04 0.788E-04
-9.820 0.770E-04 0.769E-04
-9.819 0.752E-04 0.751E-04
-9.818 0.734E-04 0.734E-04
-9.817 0.717E-04 0.716E-04
-9.816 0.700E-04 0.699E-04
-9.815 0.683E-04 0.683E-04
-9.814 0.667E-04 0.667E-04
-9.813 0.651E-04 0.651E-04
-9.812 0.636E-04 0.636E-04
-9.811 0.621E-04 0.621E-04
-9.810 0.606E-04 0.606E-04
-9.809 0.592E-04 0.591E-04
-9.808 0.578E-04 0.577E-04
-9.807 0.564E-04 0.564E-04
-9.806 0.550E-04 0.550E-04
-9.805 0.537E-04 0.537E-04
-9.804 0.524E-04 0.524E-04
-9.803 0.512E-04 0.512E-04
-9.802 0.500E-04 0.499E-04
-9.801 0.488E-04 0.487E-04
-9.800 0.476E-04 0.476E-04
-9.799 0.465E-04 0.464E-04
-9.798 0.453E-04 0.453E-04
-9.797 0.442E-04 0.442E-04
-9.796 0.432E-04 0.432E-04
-9.795 0.421E-04 0.421E-04
-9.794 0.411E-04 0.411E-04
-9.793 0.401E-04 0.401E-04
-9.792 0.392E-04 0.391E-04
-9.791 0.382E-04 0.382E-04
-9.790 0.373E-04 0.373E-04
-9.789 0.364E-04 0.364E-04
-9.788 0.355E-04 0.355E-04
-9.787 0.346E-04 0.346E-04
-9.786 0.338E-04 0.338E-04
-9.785 0.330E-04 0.330E-04
-9.784 0.322E-04 0.321E-04
-9.783 0.314E-04 0.314E-04
-9.782 0.306E-04 0.306E-04
-9.781 0.299E-04 0.298E-04
-9.780 0.291E-04 0.291E-04
-9.779 0.284E-04 0.284E-04
-9.778 0.277E-04 0.277E-04
-9.777 0.270E-04 0.270E-04
-9.776 0.264E-04 0.264E-04
-9.775 0.257E-04 0.257E-04
-9.774 0.251E-04 0.251E-04
-9.773 0.245E-04 0.245E-04
-9.772 0.239E-04 0.239E-04
-9.771 0.233E-04 0.233E-04
-9.770 0.227E-04 0.227E-04
-9.769 0.221E-04 0.221E-04
-9.768 0.216E-04 0.216E-04
-9.767 0.211E-04 0.210E-04
-9.766 0.205E-04 0.205E-04
-9.765 0.200E-04 0.200E-04
-9.764 0.195E-04 0.195E-04
-9.763 0.190E-04 0.190E-04
-9.762 0.186E-04 0.186E-04
-9.761 0.181E-04 0.181E-04
-9.760 0.176E-04 0.176E-04
-9.759 0.172E-04 0.172E-04
-9.758 0.168E-04 0.168E-04
-9.757 0.164E-04 0.163E-04
-9.756 0.159E-04 0.159E-04
-9.755 0.155E-04 0.155E-04
-9.754 0.151E-04 0.151E-04
-9.753 0.148E-04 0.148E-04
-9.752 0.144E-04 0.144E-04
-9.751 0.140E-04 0.140E-04
-9.750 0.137E-04 0.137E-04
-9.749 0.133E-04 0.133E-04
-9.748 0.130E-04 0.130E-04
-9.747 0.127E-04 0.127E-04
-9.746 0.123E-04 0.123E-04
-9.745 0.120E-04 0.120E-04
-9.744 0.117E-04 0.117E-04
-9.743 0.114E-04 0.114E-04
-9.742 0.111E-04 0.111E-04
-9.741 0.109E-04 0.108E-04
-9.740 0.106E-04 0.106E-04
-9.739 0.103E-04 0.103E-04
-9.738 0.100E-04 0.100E-04
-9.737 0.979E-05 0.978E-05
-9.736 0.953E-05 0.953E-05
-9.735 0.929E-05 0.929E-05
-9.734 0.905E-05 0.905E-05
-9.733 0.882E-05 0.882E-05
-9.732 0.859E-05 0.859E-05
-9.731 0.837E-05 0.837E-05
-9.730 0.816E-05 0.815E-05
-9.729 0.795E-05 0.794E-05
-9.728 0.774E-05 0.774E-05
-9.727 0.754E-05 0.754E-05
-9.726 0.735E-05 0.734E-05
-9.725 0.716E-05 0.715E-05
-9.724 0.697E-05 0.697E-05
-9.723 0.679E-05 0.679E-05
-9.722 0.661E-05 0.661E-05
-9.721 0.644E-05 0.644E-05
-9.720 0.627E-05 0.627E-05
-9.719 0.611E-05 0.611E-05
-9.718 0.595E-05 0.595E-05
-9.717 0.580E-05 0.579E-05
-9.716 0.564E-05 0.564E-05
-9.715 0.550E-05 0.549E-05
-9.714 0.535E-05 0.535E-05
-9.713 0.521E-05 0.521E-05
-9.712 0.508E-05 0.507E-05
-9.711 0.494E-05 0.494E-05
-9.710 0.481E-05 0.481E-05
-9.709 0.469E-05 0.468E-05
-9.708 0.456E-05 0.456E-05
-9.707 0.444E-05 0.444E-05
-9.706 0.433E-05 0.432E-05
-9.705 0.421E-05 0.421E-05
-9.704 0.410E-05 0.410E-05
-9.703 0.399E-05 0.399E-05
-9.702 0.389E-05 0.388E-05
-9.701 0.378E-05 0.378E-05
-9.700 0.368E-05 0.368E-05
-9.699 0.358E-05 0.358E-05
-9.698 0.349E-05 0.349E-05
-9.697 0.340E-05 0.340E-05
-9.696 0.331E-05 0.330E-05
-9.695 0.322E-05 0.322E-05
-9.694 0.313E-05 0.313E-05
-9.693 0.305E-05 0.305E-05
-9.692 0.297E-05 0.297E-05
-9.691 0.289E-05 0.289E-05
-9.690 0.281E-05 0.281E-05
-9.689 0.274E-05 0.273E-05
-9.688 0.266E-05 0.266E-05
-9.687 0.259E-05 0.259E-05
-9.686 0.252E-05 0.252E-05
-9.685 0.245E-05 0.245E-05
-9.684 0.239E-05 0.239E-05
-9.683 0.232E-05 0.232E-05
-9.682 0.226E-05 0.226E-05
-9.681 0.220E-05 0.220E-05
-9.680 0.214E-05 0.214E-05
-9.679 0.208E-05 0.208E-05
-9.678 0.203E-05 0.202E-05
-9.677 0.197E-05 0.197E-05
-9.676 0.192E-05 0.192E-05
-9.675 0.186E-05 0.186E-05
-9.674 0.181E-05 0.181E-05
-9.673 0.176E-05 0.176E-05
-9.672 0.172E-05 0.172E-05
-9.671 0.167E-05 0.167E-05
-9.670 0.162E-05 0.162E-05
-9.669 0.158E-05 0.158E-05
-9.668 0.154E-05 0.154E-05
-9.667 0.149E-05 0.149E-05
-9.666 0.145E-05 0.145E-05
-9.665 0.141E-05 0.141E-05
-9.664 0.137E-05 0.137E-05
-9.663 0.134E-05 0.134E-05
-9.662 0.130E-05 0.130E-05
-9.661 0.126E-05 0.126E-05
-9.660 0.123E-05 0.123E-05
-9.659 0.120E-05 0.120E-05
-9.658 0.116E-05 0.116E-05
-9.657 0.113E-05 0.113E-05
-9.656 0.110E-05 0.110E-05
-9.655 0.107E-05 0.107E-05
-9.654 0.104E-05 0.104E-05
-9.653 0.101E-05 0.101E-05
-9.652 0.983E-06 0.982E-06
-9.651 0.955E-06 0.955E-06
-9.650 0.929E-06 0.928E-06
-9.649 0.903E-06 0.903E-06
-9.648 0.878E-06 0.877E-06
-9.647 0.853E-06 0.853E-06
-9.646 0.830E-06 0.829E-06
-9.645 0.806E-06 0.806E-06
-9.644 0.784E-06 0.783E-06
-9.643 0.762E-06 0.762E-06
-9.642 0.741E-06 0.740E-06
-9.641 0.720E-06 0.719E-06
-9.640 0.700E-06 0.699E-06
-9.639 0.680E-06 0.680E-06
-9.638 0.661E-06 0.661E-06
-9.637 0.642E-06 0.642E-06
-9.636 0.624E-06 0.624E-06
-9.635 0.607E-06 0.606E-06
-9.634 0.589E-06 0.589E-06
-9.633 0.573E-06 0.573E-06
-9.632 0.557E-06 0.556E-06
-9.631 0.541E-06 0.541E-06
-9.630 0.526E-06 0.525E-06
-9.629 0.511E-06 0.510E-06
-9.628 0.496E-06 0.496E-06
-9.627 0.482E-06 0.482E-06
-9.626 0.468E-06 0.468E-06
-9.625 0.455E-06 0.455E-06
-9.624 0.442E-06 0.442E-06
-9.623 0.430E-06 0.429E-06
-9.622 0.417E-06 0.417E-06
-9.621 0.405E-06 0.405E-06
-9.620 0.394E-06 0.394E-06
-9.619 0.383E-06 0.382E-06
-9.618 0.372E-06 0.371E-06
-9.617 0.361E-06 0.361E-06
-9.616 0.351E-06 0.350E-06
-9.615 0.341E-06 0.340E-06
-9.614 0.331E-06 0.331E-06
-9.613 0.321E-06 0.321E-06
-9.612 0.312E-06 0.312E-06
-9.611 0.303E-06 0.303E-06
-9.610 0.294E-06 0.294E-06
-9.609 0.286E-06 0.286E-06
-9.608 0.278E-06 0.277E-06
-9.607 0.270E-06 0.269E-06
-9.606 0.262E-06 0.262E-06
-9.605 0.254E-06 0.254E-06
-9.604 0.247E-06 0.247E-06
-9.603 0.240E-06 0.240E-06
-9.602 0.233E-06 0.233E-06
-9.601 0.226E-06 0.226E-06
-9.600 0.219E-06 0.219E-06
-9.599 0.213E-06 0.213E-06
-9.598 0.207E-06 0.207E-06
-9.597 0.201E-06 0.201E-06
-9.596 0.195E-06 0.195E-06
-9.595 0.189E-06 0.189E-06
-9.594 0.184E-06 0.184E-06
-9.593 0.178E-06 0.178E-06
-9.592 0.173E-06 0.173E-06
-9.591 0.168E-06 0.168E-06
-9.590 0.163E-06 0.163E-06
-9.589 0.158E-06 0.158E-06
-9.588 0.154E-06 0.154E-06
-9.587 0.149E-06 0.149E-06
-9.586 0.145E-06 0.145E-06
-9.585 0.140E-06 0.140E-06
-9.584 0.136E-06 0.136E-06
-9.583 0.132E-06 0.132E-06
-9.582 0.128E-06 0.128E-06
-9.581 0.125E-06 0.125E-06
-9.580 0.121E-06 0.121E-06
-9.579 0.117E-06 0.117E-06
-9.578 0.114E-06 0.114E-06
-9.577 0.110E-06 0.110E-06
-9.576 0.107E-06 0.107E-06
-9.575 0.104E-06 0.104E-06
-9.574 0.101E-06 0.101E-06
-9.573 0.979E-07 0.979E-07
-9.572 0.950E-07 0.950E-07
-9.571 0.922E-07 0.921E-07
-9.570 0.894E-07 0.894E-07
-9.569 0.868E-07 0.867E-07
-9.568 0.842E-07 0.841E-07
-9.567 0.816E-07 0.816E-07
-9.566 0.792E-07 0.792E-07
-9.565 0.768E-07 0.768E-07
-9.564 0.745E-07 0.745E-07
-9.563 0.723E-07 0.723E-07
-9.562 0.701E-07 0.701E-07
-9.561 0.680E-07 0.680E-07
-9.560 0.660E-07 0.659E-07
-9.559 0.640E-07 0.639E-07
-9.558 0.620E-07 0.620E-07
-9.557 0.602E-07 0.601E-07
-9.556 0.584E-07 0.583E-07
-9.555 0.566E-07 0.566E-07
-9.554 0.549E-07 0.549E-07
-9.553 0.532E-07 0.532E-07
-9.552 0.516E-07 0.516E-07
-9.551 0.500E-07 0.500E-07
-9.550 0.485E-07 0.485E-07
-9.549 0.470E-07 0.470E-07
-9.548 0.456E-07 0.456E-07
-9.547 0.442E-07 0.442E-07
-9.546 0.429E-07 0.429E-07
-9.545 0.416E-07 0.416E-07
-9.544 0.403E-07 0.403E-07
-9.543 0.391E-07 0.391E-07
-9.542 0.379E-07 0.379E-07
-9.541 0.367E-07 0.367E-07
-9.540 0.356E-07 0.356E-07
-9.539 0.345E-07 0.345E-07
-9.538 0.334E-07 0.334E-07
-9.537 0.324E-07 0.324E-07
-9.536 0.314E-07 0.314E-07
-9.535 0.305E-07 0.304E-07
-9.534 0.295E-07 0.295E-07
-9.533 0.286E-07 0.286E-07
-9.532 0.277E-07 0.277E-07
-9.531 0.269E-07 0.269E-07
-9.530 0.260E-07 0.260E-07
-9.529 0.252E-07 0.252E-07
-9.528 0.245E-07 0.245E-07
-9.527 0.237E-07 0.237E-07
-9.526 0.230E-07 0.230E-07
-9.525 0.223E-07 0.222E-07
-9.524 0.216E-07 0.216E-07
-9.523 0.209E-07 0.209E-07
-9.522 0.202E-07 0.202E-07
-9.521 0.196E-07 0.196E-07
-9.520 0.190E-07 0.190E-07
-9.519 0.184E-07 0.184E-07
-9.518 0.178E-07 0.178E-07
-9.517 0.173E-07 0.173E-07
-9.516 0.167E-07 0.167E-07
-9.515 0.162E-07 0.162E-07
-9.514 0.157E-07 0.157E-07
-9.513 0.152E-07 0.152E-07
-9.512 0.147E-07 0.147E-07
-9.511 0.143E-07 0.143E-07
-9.510 0.138E-07 0.138E-07
-9.509 0.134E-07 0.134E-07
-9.508 0.130E-07 0.130E-07
-9.507 0.126E-07 0.126E-07
-9.506 0.122E-07 0.122E-07
-9.505 0.118E-07 0.118E-07
-9.504 0.114E-07 0.114E-07
-9.503 0.111E-07 0.111E-07
-9.502 0.107E-07 0.107E-07
-9.501 0.104E-07 0.104E-07
-9.500 0.100E-07 0.100E-07
-9.499 0.972E-08 0.972E-08
-9.498 0.942E-08 0.941E-08
-9.497 0.912E-08 0.911E-08
-9.496 0.883E-08 0.882E-08
-9.495 0.855E-08 0.854E-08
-9.494 0.827E-08 0.827E-08
-9.493 0.801E-08 0.801E-08
-9.492 0.776E-08 0.775E-08
-9.491 0.751E-08 0.751E-08
-9.490 0.727E-08 0.727E-08
-9.489 0.704E-08 0.703E-08
-9.488 0.681E-08 0.681E-08
-9.487 0.659E-08 0.659E-08
-9.486 0.638E-08 0.638E-08
-9.485 0.618E-08 0.618E-08
-9.484 0.598E-08 0.598E-08
-9.483 0.579E-08 0.579E-08
-9.482 0.560E-08 0.560E-08
-9.481 0.542E-08 0.542E-08
-9.480 0.525E-08 0.524E-08
-9.479 0.508E-08 0.508E-08
-9.478 0.491E-08 0.491E-08
-9.477 0.476E-08 0.475E-08
-9.476 0.460E-08 0.460E-08
-9.475 0.445E-08 0.445E-08
-9.474 0.431E-08 0.431E-08
-9.473 0.417E-08 0.417E-08
-9.472 0.403E-08 0.403E-08
-9.471 0.390E-08 0.390E-08
-9.470 0.378E-08 0.378E-08
-9.469 0.365E-08 0.365E-08
-9.468 0.354E-08 0.353E-08
-9.467 0.342E-08 0.342E-08
-9.466 0.331E-08 0.331E-08
-9.465 0.320E-08 0.320E-08
-9.464 0.310E-08 0.310E-08
-9.463 0.300E-08 0.299E-08
-9.462 0.290E-08 0.290E-08
-9.461 0.280E-08 0.280E-08
-9.460 0.271E-08 0.271E-08
-9.459 0.262E-08 0.262E-08
-9.458 0.254E-08 0.253E-08
-9.457 0.245E-08 0.245E-08
-9.456 0.237E-08 0.237E-08
-9.455 0.229E-08 0.229E-08
-9.454 0.222E-08 0.222E-08
-9.453 0.215E-08 0.214E-08
-9.452 0.207E-08 0.207E-08
-9.451 0.201E-08 0.201E-08
-9.450 0.194E-08 0.194E-08
-9.449 0.188E-08 0.187E-08
-9.448 0.181E-08 0.181E-08
-9.447 0.175E-08 0.175E-08
-9.446 0.170E-08 0.169E-08
-9.445 0.164E-08 0.164E-08
-9.444 0.158E-08 0.158E-08
-9.443 0.153E-08 0.153E-08
-9.442 0.148E-08 0.148E-08
-9.441 0.143E-08 0.143E-08
-9.440 0.138E-08 0.138E-08
-9.439 0.134E-08 0.134E-08
-9.438 0.129E-08 0.129E-08
-9.437 0.125E-08 0.125E-08
-9.436 0.121E-08 0.121E-08
-9.435 0.117E-08 0.117E-08
-9.434 0.113E-08 0.113E-08
-9.433 0.109E-08 0.109E-08
-9.432 0.105E-08 0.105E-08
-9.431 0.102E-08 0.102E-08
-9.430 0.984E-09 0.983E-09
-9.429 0.951E-09 0.950E-09
-9.428 0.918E-09 0.918E-09
-9.427 0.887E-09 0.887E-09
-9.426 0.857E-09 0.857E-09
-9.425 0.828E-09 0.828E-09
-9.424 0.800E-09 0.800E-09
-9.423 0.773E-09 0.773E-09
-9.422 0.747E-09 0.747E-09
-9.421 0.722E-09 0.721E-09
-9.420 0.697E-09 0.697E-09
-9.419 0.673E-09 0.673E-09
-9.418 0.650E-09 0.650E-09
-9.417 0.628E-09 0.627E-09
-9.416 0.606E-09 0.606E-09
-9.415 0.585E-09 0.585E-09
-9.414 0.565E-09 0.565E-09
-9.413 0.546E-09 0.546E-09
-9.412 0.527E-09 0.527E-09
-9.411 0.509E-09 0.509E-09
-9.410 0.491E-09 0.491E-09
-9.409 0.474E-09 0.474E-09
-9.408 0.458E-09 0.458E-09
-9.407 0.442E-09 0.442E-09
-9.406 0.427E-09 0.427E-09
-9.405 0.412E-09 0.412E-09
-9.404 0.398E-09 0.398E-09
-9.403 0.384E-09 0.384E-09
-9.402 0.371E-09 0.370E-09
-9.401 0.357E-09 0.357E-09
-9.400 0.345E-09 0.345E-09
-9.399 0.333E-09 0.333E-09
-9.398 0.321E-09 0.321E-09
-9.397 0.310E-09 0.310E-09
-9.396 0.299E-09 0.299E-09
-9.395 0.289E-09 0.288E-09
-9.394 0.278E-09 0.278E-09
-9.393 0.268E-09 0.268E-09
-9.392 0.259E-09 0.259E-09
-9.391 0.250E-09 0.250E-09
-9.390 0.241E-09 0.241E-09
-9.389 0.232E-09 0.232E-09
-9.388 0.224E-09 0.224E-09
-9.387 0.216E-09 0.216E-09
-9.386 0.208E-09 0.208E-09
-9.385 0.200E-09 0.200E-09
-9.384 0.193E-09 0.193E-09
-9.383 0.186E-09 0.186E-09
-9.382 0.180E-09 0.179E-09
-9.381 0.173E-09 0.173E-09
-9.380 0.167E-09 0.167E-09
-9.379 0.161E-09 0.161E-09
-9.378 0.155E-09 0.155E-09
-9.377 0.149E-09 0.149E-09
-9.376 0.144E-09 0.144E-09
-9.375 0.138E-09 0.138E-09
-9.374 0.133E-09 0.133E-09
-9.373 0.128E-09 0.128E-09
-9.372 0.124E-09 0.124E-09
-9.371 0.119E-09 0.119E-09
-9.370 0.114E-09 0.114E-09
-9.369 0.110E-09 0.110E-09
-9.368 0.106E-09 0.106E-09
-9.367 0.102E-09 0.102E-09
-9.366 0.981E-10 0.981E-10
-9.365 0.944E-10 0.943E-10
-9.364 0.908E-10 0.908E-10
-9.363 0.871E-10 0.870E-10
-9.362 0.837E-10 0.837E-10
-9.361 0.805E-10 0.804E-10
-9.360 0.773E-10 0.773E-10
-9.359 0.743E-10 0.742E-10
-9.358 0.715E-10 0.715E-10
-9.357 0.684E-10 0.684E-10
-9.356 0.657E-10 0.657E-10
-9.355 0.630E-10 0.630E-10
-9.354 0.607E-10 0.606E-10
-9.353 0.582E-10 0.581E-10
-9.352 0.559E-10 0.559E-10
-9.351 0.536E-10 0.536E-10
-9.350 0.514E-10 0.514E-10
-9.349 0.490E-10 0.489E-10
-9.348 0.469E-10 0.469E-10
-9.347 0.449E-10 0.449E-10
-9.346 0.432E-10 0.431E-10
-9.345 0.415E-10 0.415E-10
-9.344 0.395E-10 0.395E-10
-9.343 0.379E-10 0.379E-10
-9.342 0.360E-10 0.360E-10
-9.341 0.345E-10 0.345E-10
-9.340 0.330E-10 0.329E-10
-9.339 0.314E-10 0.314E-10
-9.338 0.301E-10 0.301E-10
-9.337 0.287E-10 0.287E-10
-9.336 0.271E-10 0.271E-10
-9.335 0.259E-10 0.259E-10
-9.334 0.249E-10 0.249E-10
-9.333 0.237E-10 0.237E-10
-9.332 0.222E-10 0.222E-10
-9.331 0.211E-10 0.211E-10
-9.330 0.200E-10 0.200E-10
-9.329 0.191E-10 0.191E-10
-9.328 0.181E-10 0.181E-10
-9.327 0.173E-10 0.173E-10
-9.326 0.161E-10 0.161E-10
-9.325 0.152E-10 0.151E-10
-9.324 0.141E-10 0.141E-10
-9.323 0.135E-10 0.135E-10
-9.322 0.126E-10 0.126E-10
-9.321 0.120E-10 0.120E-10
-9.320 0.111E-10 0.111E-10
-9.319 0.104E-10 0.104E-10
-9.318 0.963E-11 0.963E-11
-9.317 0.884E-11 0.884E-11
-9.316 0.815E-11 0.815E-11
-9.315 0.771E-11 0.771E-11
-9.314 0.712E-11 0.711E-11
-9.313 0.671E-11 0.670E-11
-9.312 0.565E-11 0.565E-11
-9.311 0.518E-11 0.518E-11
-9.310 0.488E-11 0.488E-11
-9.309 0.427E-11 0.427E-11
-9.308 0.375E-11 0.374E-11
-9.307 0.318E-11 0.318E-11
-9.306 0.277E-11 0.277E-11
-9.305 0.245E-11 0.245E-11
-9.304 0.188E-11 0.188E-11
-9.303 0.144E-11 0.144E-11
-9.302 0.112E-11 0.112E-11
-9.301 0.628E-12 0.627E-12
-9.300 0.308E-12 0.308E-12
-9.299 0.255E-13 0.255E-13
-9.298 0.000E+00 0.000E+00
-9.297 0.000E+00 0.000E+00
-9.296 0.000E+00 0.000E+00
-9.295 0.000E+00 0.000E+00
-9.294 0.000E+00 0.000E+00
-9.293 0.000E+00 0.000E+00
-9.292 0.000E+00 0.000E+00
-9.291 0.000E+00 0.000E+00
-9.290 0.000E+00 0.000E+00
-9.289 0.000E+00 0.000E+00
-9.288 0.000E+00 0.000E+00
-9.287 0.000E+00 0.000E+00
-9.286 0.000E+00 0.000E+00
-9.285 0.000E+00 0.000E+00
-9.284 0.000E+00 0.000E+00
-9.283 0.000E+00 0.000E+00
-9.282 0.000E+00 0.000E+00
-9.281 0.000E+00 0.000E+00
-9.280 0.000E+00 0.000E+00
-9.279 0.000E+00 0.000E+00
-9.278 0.000E+00 0.000E+00
-9.277 0.000E+00 0.000E+00
-9.276 0.000E+00 0.000E+00
-9.275 0.000E+00 0.000E+00
-9.274 0.000E+00 0.000E+00
-9.273 0.000E+00 0.000E+00
-9.272 0.000E+00 0.000E+00
-9.271 0.000E+00 0.000E+00
-9.270 0.000E+00 0.000E+00
-9.269 0.000E+00 0.000E+00
-9.268 0.000E+00 0.000E+00
-9.267 0.000E+00 0.000E+00
-9.266 0.000E+00 0.000E+00
-9.265 0.000E+00 0.000E+00
-9.264 0.000E+00 0.000E+00
-9.263 0.000E+00 0.000E+00
-9.262 0.000E+00 0.000E+00
