E(eV) dos(E) pdos(E)
-10.000 0.336E-02 0.336E-02
-9.999 0.330E-02 0.330E-02
-9.998 0.324E-02 0.323E-02
-9.997 0.317E-02 0.317E-02
-9.996 0.311E-02 0.311E-02
-9.995 0.305E-02 0.305E-02
-9.994 0.299E-02 0.299E-02
-9.993 0.294E-02 0.294E-02
-9.992 0.288E-02 0.288E-02
-9.991 0.282E-02 0.282E-02
-9.990 0.277E-02 0.277E-02
-9.989 0.272E-02 0.272E-02
-9.988 0.266E-02 0.266E-02
-9.987 0.261E-02 0.261E-02
-9.986 0.256E-02 0.256E-02
-9.985 0.251E-02 0.251E-02
-9.984 0.246E-02 0.246E-02
-9.983 0.241E-02 0.241E-02
-9.982 0.237E-02 0.237E-02
-9.981 0.232E-02 0.232E-02
-9.980 0.228E-02 0.227E-02
-9.979 0.223E-02 0.223E-02
-9.978 0.219E-02 0.219E-02
-9.977 0.214E-02 0.214E-02
-9.976 0.210E-02 0.210E-02
-9.975 0.206E-02 0.206E-02
-9.974 0.202E-02 0.202E-02
-9.973 0.198E-02 0.198E-02
-9.972 0.194E-02 0.194E-02
-9.971 0.190E-02 0.190E-02
-9.970 0.187E-02 0.186E-02
-9.969 0.183E-02 0.183E-02
-9.968 0.179E-02 0.179E-02
-9.967 0.176E-02 0.176E-02
-9.966 0.172E-02 0.172E-02
-9.965 0.169E-02 0.169E-02
-9.964 0.165E-02 0.165E-02
-9.963 0.162E-02 0.162E-02
-9.962 0.159E-02 0.159E-02
-9.961 0.156E-02 0.156E-02
-9.960 0.152E-02 0.152E-02
-9.959 0.149E-02 0.149E-02
-9.958 0.146E-02 0.146E-02
-9.957 0.143E-02 0.143E-02
-9.956 0.141E-02 0.140E-02
-9.955 0.138E-02 0.138E-02
-9.954 0.135E-02 0.135E-02
-9.953 0.132E-02 0.132E-02
-9.952 0.130E-02 0.129E-02
-9.951 0.127E-02 0.127E-02
-9.950 0.124E-02 0.124E-02
-9.949 0.122E-02 0.122E-02
-9.948 0.119E-02 0.119E-02
-9.947 0.117E-02 0.117E-02
-9.946 0.114E-02 0.114E-02
-9.945 0.112E-02 0.112E-02
-9.944 0.110E-02 0.110E-02
-9.943 0.108E-02 0.108E-02
-9.942 0.105E-02 0.105E-02
-9.941 0.103E-02 0.103E-02
-9.940 0.101E-02 0.101E-02
-9.939 0.990E-03 0.990E-03
-9.938 0.970E-03 0.969E-03
-9.937 0.950E-03 0.949E-03
-9.936 0.930E-03 0.930E-03
-9.935 0.911E-03 0.910E-03
-9.934 0.892E-03 0.892E-03
-9.933 0.873E-03 0.873E-03
-9.932 0.855E-03 0.855E-03
-9.931 0.838E-03 0.837E-03
-9.930 0.820E-03 0.820E-03
-9.929 0.803E-03 0.803E-03
-9.928 0.786E-03 0.786E-03
-9.927 0.770E-03 0.769E-03
-9.926 0.754E-03 0.753E-03
-9.925 0.738E-03 0.738E-03
-9.924 0.722E-03 0.722E-03
-9.923 0.707E-03 0.707E-03
-9.922 0.692E-03 0.692E-03
-9.921 0.678E-03 0.678E-03
-9.920 0.664E-03 0.663E-03
-9.919 0.650E-03 0.649E-03
-9.918 0.636E-03 0.636E-03
-9.917 0.622E-03 0.622E-03
-9.916 0.609E-03 0.609E-03
-9.915 0.596E-03 0.596E-03
-9.914 0.584E-03 0.583E-03
-9.913 0.571E-03 0.571E-03
-9.912 0.559E-03 0.559E-03
-9.911 0.547E-03 0.547E-03
-9.910 0.535E-03 0.535E-03
-9.909 0.524E-03 0.524E-03
-9.908 0.513E-03 0.513E-03
-9.907 0.502E-03 0.502E-03
-9.906 0.491E-03 0.491E-03
-9.905 0.481E-03 0.480E-03
-9.904 0.470E-03 0.470E-03
-9.903 0.460E-03 0.460E-03
-9.902 0.450E-03 0.450E-03
-9.901 0.441E-03 0.440E-03
-9.900 0.431E-03 0.431E-03
-9.899 0.422E-03 0.422E-03
-9.898 0.413E-03 0.412E-03
-9.897 0.404E-03 0.404E-03
-9.896 0.395E-03 0.395E-03
-9.895 0.386E-03 0.386E-03
-9.894 0.378E-03 0.378E-03
-9.893 0.370E-03 0.370E-03
-9.892 0.362E-03 0.362E-03
-9.891 0.354E-03 0.354E-03
-9.890 0.346E-03 0.346E-03
-9.889 0.339E-03 0.338E-03
-9.888 0.331E-03 0.331E-03
-9.887 0.324E-03 0.324E-03
-9.886 0.317E-03 0.317E-03
-9.885 0.310E-03 0.310E-03
-9.884 0.303E-03 0.303E-03
-9.883 0.296E-03 0.296E-03
-9.882 0.290E-03 0.290E-03
-9.881 0.283E-03 0.283E-03
-9.880 0.277E-03 0.277E-03
-9.879 0.271E-03 0.271E-03
-9.878 0.265E-03 0.265E-03
-9.877 0.259E-03 0.259E-03
-9.876 0.253E-03 0.253E-03
-9.875 0.248E-03 0.248E-03
-9.874 0.242E-03 0.242E-03
-9.873 0.237E-03 0.237E-03
-9.872 0.232E-03 0.232E-03
-9.871 0.226E-03 0.226E-03
-9.870 0.221E-03 0.221E-03
-9.869 0.216E-03 0.216E-03
-9.868 0.212E-03 0.211E-03
-9.867 0.207E-03 0.207E-03
-9.866 0.202E-03 0.202E-03
-9.865 0.198E-03 0.198E-03
-9.864 0.193E-03 0.193E-03
-9.863 0.189E-03 0.189E-03
-9.862 0.185E-03 0.185E-03
-9.861 0.180E-03 0.180E-03
-9.860 0.176E-03 0.176E-03
-9.859 0.172E-03 0.172E-03
-9.858 0.168E-03 0.168E-03
-9.857 0.165E-03 0.165E-03
-9.856 0.161E-03 0.161E-03
-9.855 0.157E-03 0.157E-03
-9.854 0.154E-03 0.154E-03
-9.853 0.150E-03 0.150E-03
-9.852 0.147E-03 0.147E-03
-9.851 0.143E-03 0.143E-03
-9.850 0.140E-03 0.140E-03
-9.849 0.137E-03 0.137E-03
-9.848 0.134E-03 0.134E-03
-9.847 0.131E-03 0.131E-03
-9.846 0.128E-03 0.128E-03
-9.845 0.125E-03 0.125E-03
-9.844 0.122E-03 0.122E-03
-9.843 0.119E-03 0.119E-03
-9.842 0.116E-03 0.116E-03
-9.841 0.114E-03 0.114E-03
-9.840 0.111E-03 0.111E-03
-9.839 0.109E-03 0.108E-03
-9.838 0.106E-03 0.106E-03
-9.837 0.104E-03 0.104E-03
-9.836 0.101E-03 0.101E-03
-9.835 0.988E-04 0.988E-04
-9.834 0.965E-04 0.965E-04
-9.833 0.943E-04 0.942E-04
-9.832 0.921E-04 0.920E-04
-9.831 0.899E-04 0.899E-04
-9.830 0.878E-04 0.878E-04
-9.829 0.858E-04 0.857E-04
-9.828 0.838E-04 0.837E-04
-9.827 0.818E-04 0.818E-04
-9.826 0.799E-04 0.799E-04
-9.825 0.780E-04 0.780E-04
-9.824 0.762E-04 0.761E-04
-9.823 0.744E-04 0.744E-04
-9.822 0.726E-04 0.726E-04
-9.821 0.709E-04 0.709E-04
-9.820 0.693E-04 0.692E-04
-9.819 0.676E-04 0.676E-04
-9.818 0.660E-04 0.660E-04
-9.817 0.645E-04 0.644E-04
-9.816 0.629E-04 0.629E-04
-9.815 0.614E-04 0.614E-04
-9.814 0.600E-04 0.599E-04
-9.813 0.585E-04 0.585E-04
-9.812 0.572E-04 0.571E-04
-9.811 0.558E-04 0.558E-04
-9.810 0.545E-04 0.544E-04
-9.809 0.532E-04 0.531E-04
-9.808 0.519E-04 0.519E-04
-9.807 0.507E-04 0.506E-04
-9.806 0.494E-04 0.494E-04
-9.805 0.483E-04 0.482E-04
-9.804 0.471E-04 0.471E-04
-9.803 0.460E-04 0.459E-04
-9.802 0.449E-04 0.448E-04
-9.801 0.438E-04 0.438E-04
-9.800 0.427E-04 0.427E-04
-9.799 0.417E-04 0.417E-04
-9.798 0.407E-04 0.407E-04
-9.797 0.397E-04 0.397E-04
-9.796 0.387E-04 0.387E-04
-9.795 0.378E-04 0.378E-04
-9.794 0.369E-04 0.369E-04
-9.793 0.360E-04 0.360E-04
-9.792 0.351E-04 0.351E-04
-9.791 0.343E-04 0.342E-04
-9.790 0.334E-04 0.334E-04
-9.789 0.326E-04 0.326E-04
-9.788 0.318E-04 0.318E-04
-9.787 0.310E-04 0.310E-04
-9.786 0.303E-04 0.303E-04
-9.785 0.295E-04 0.295E-04
-9.784 0.288E-04 0.288E-04
-9.783 0.281E-04 0.281E-04
-9.782 0.274E-04 0.274E-04
-9.781 0.267E-04 0.267E-04
-9.780 0.261E-04 0.261E-04
-9.779 0.254E-04 0.254E-04
-9.778 0.248E-04 0.248E-04
-9.777 0.242E-04 0.242E-04
-9.776 0.236E-04 0.236E-04
-9.775 0.230E-04 0.230E-04
-9.774 0.225E-04 0.224E-04
-9.773 0.219E-04 0.219E-04
-9.772 0.214E-04 0.213E-04
-9.771 0.208E-04 0.208E-04
-9.770 0.203E-04 0.203E-04
-9.769 0.198E-04 0.198E-04
-9.768 0.193E-04 0.193E-04
-9.767 0.188E-04 0.188E-04
-9.766 0.184E-04 0.183E-04
-9.765 0.179E-04 0.179E-04
-9.764 0.174E-04 0.174E-04
-9.763 0.170E-04 0.170E-04
-9.762 0.166E-04 0.166E-04
-9.761 0.162E-04 0.162E-04
-9.760 0.158E-04 0.158E-04
-9.759 0.154E-04 0.154E-04
-9.758 0.150E-04 0.150E-04
-9.757 0.146E-04 0.146E-04
-9.756 0.142E-04 0.142E-04
-9.755 0.139E-04 0.139E-04
-9.754 0.135E-04 0.135E-04
-9.753 0.132E-04 0.132E-04
-9.752 0.128E-04 0.128E-04
-9.751 0.125E-04 0.125E-04
-9.750 0.122E-04 0.122E-04
-9.749 0.119E-04 0.119E-04
-9.748 0.116E-04 0.116E-04
-9.747 0.113E-04 0.113E-04
-9.746 0.110E-04 0.110E-04
-9.745 0.107E-04 0.107E-04
-9.744 0.105E-04 0.105E-04
-9.743 0.102E-04 0.102E-04
-9.742 0.993E-05 0.992E-05
-9.741 0.967E-05 0.967E-05
-9.740 0.943E-05 0.942E-05
-9.739 0.918E-05 0.918E-05
-9.738 0.895E-05 0.894E-05
-9.737 0.872E-05 0.871E-05
-9.736 0.849E-05 0.849E-05
-9.735 0.827E-05 0.827E-05
-9.734 0.806E-05 0.806E-05
-9.733 0.785E-05 0.785E-05
-9.732 0.765E-05 0.765E-05
-9.731 0.745E-05 0.745E-05
-9.730 0.726E-05 0.726E-05
-9.729 0.707E-05 0.707E-05
-9.728 0.689E-05 0.689E-05
-9.727 0.671E-05 0.671E-05
-9.726 0.654E-05 0.653E-05
-9.725 0.637E-05 0.636E-05
-9.724 0.620E-05 0.620E-05
-9.723 0.604E-05 0.604E-05
-9.722 0.588E-05 0.588E-05
-9.721 0.573E-05 0.572E-05
-9.720 0.558E-05 0.558E-05
-9.719 0.543E-05 0.543E-05
-9.718 0.529E-05 0.529E-05
-9.717 0.515E-05 0.515E-05
-9.716 0.502E-05 0.501E-05
-9.715 0.488E-05 0.488E-05
-9.714 0.476E-05 0.475E-05
-9.713 0.463E-05 0.463E-05
-9.712 0.451E-05 0.451E-05
-9.711 0.439E-05 0.439E-05
-9.710 0.427E-05 0.427E-05
-9.709 0.416E-05 0.416E-05
-9.708 0.405E-05 0.405E-05
-9.707 0.394E-05 0.394E-05
-9.706 0.384E-05 0.384E-05
-9.705 0.374E-05 0.374E-05
-9.704 0.364E-05 0.364E-05
-9.703 0.354E-05 0.354E-05
-9.702 0.345E-05 0.345E-05
-9.701 0.336E-05 0.335E-05
-9.700 0.327E-05 0.327E-05
-9.699 0.318E-05 0.318E-05
-9.698 0.309E-05 0.309E-05
-9.697 0.301E-05 0.301E-05
-9.696 0.293E-05 0.293E-05
-9.695 0.285E-05 0.285E-05
-9.694 0.278E-05 0.278E-05
-9.693 0.270E-05 0.270E-05
-9.692 0.263E-05 0.263E-05
-9.691 0.256E-05 0.256E-05
-9.690 0.249E-05 0.249E-05
-9.689 0.242E-05 0.242E-05
-9.688 0.236E-05 0.236E-05
-9.687 0.229E-05 0.229E-05
-9.686 0.223E-05 0.223E-05
-9.685 0.217E-05 0.217E-05
-9.684 0.211E-05 0.211E-05
-9.683 0.206E-05 0.206E-05
-9.682 0.200E-05 0.200E-05
-9.681 0.195E-05 0.195E-05
-9.680 0.189E-05 0.189E-05
-9.679 0.184E-05 0.184E-05
-9.678 0.179E-05 0.179E-05
-9.677 0.174E-05 0.174E-05
-9.676 0.170E-05 0.169E-05
-9.675 0.165E-05 0.165E-05
-9.674 0.160E-05 0.160E-05
-9.673 0.156E-05 0.156E-05
-9.672 0.152E-05 0.152E-05
-9.671 0.148E-05 0.148E-05
-9.670 0.144E-05 0.143E-05
-9.669 0.140E-05 0.140E-05
-9.668 0.136E-05 0.136E-05
-9.667 0.132E-05 0.132E-05
-9.666 0.128E-05 0.128E-05
-9.665 0.125E-05 0.125E-05
-9.664 0.121E-05 0.121E-05
-9.663 0.118E-05 0.118E-05
-9.662 0.115E-05 0.115E-05
-9.661 0.112E-05 0.112E-05
-9.660 0.109E-05 0.109E-05
-9.659 0.106E-05 0.106E-05
-9.658 0.103E-05 0.103E-05
-9.657 0.998E-06 0.998E-06
-9.656 0.970E-06 0.970E-06
-9.655 0.943E-06 0.943E-06
-9.654 0.917E-06 0.917E-06
-9.653 0.892E-06 0.891E-06
-9.652 0.867E-06 0.866E-06
-9.651 0.843E-06 0.842E-06
-9.650 0.819E-06 0.819E-06
-9.649 0.796E-06 0.796E-06
-9.648 0.774E-06 0.774E-06
-9.647 0.752E-06 0.752E-06
-9.646 0.731E-06 0.731E-06
-9.645 0.711E-06 0.710E-06
-9.644 0.691E-06 0.690E-06
-9.643 0.671E-06 0.671E-06
-9.642 0.652E-06 0.652E-06
-9.641 0.634E-06 0.634E-06
-9.640 0.616E-06 0.616E-06
-9.639 0.599E-06 0.599E-06
-9.638 0.582E-06 0.582E-06
-9.637 0.565E-06 0.565E-06
-9.636 0.549E-06 0.549E-06
-9.635 0.534E-06 0.534E-06
-9.634 0.519E-06 0.519E-06
-9.633 0.504E-06 0.504E-06
-9.632 0.490E-06 0.490E-06
-9.631 0.476E-06 0.476E-06
-9.630 0.462E-06 0.462E-06
-9.629 0.449E-06 0.449E-06
-9.628 0.436E-06 0.436E-06
-9.627 0.424E-06 0.424E-06
-9.626 0.412E-06 0.412E-06
-9.625 0.400E-06 0.400E-06
-9.624 0.389E-06 0.389E-06
-9.623 0.378E-06 0.377E-06
-9.622 0.367E-06 0.367E-06
-9.621 0.356E-06 0.356E-06
-9.620 0.346E-06 0.346E-06
-9.619 0.336E-06 0.336E-06
-9.618 0.326E-06 0.326E-06
-9.617 0.317E-06 0.317E-06
-9.616 0.308E-06 0.308E-06
-9.615 0.299E-06 0.299E-06
-9.614 0.290E-06 0.290E-06
-9.613 0.282E-06 0.282E-06
-9.612 0.274E-06 0.274E-06
-9.611 0.266E-06 0.266E-06
-9.610 0.258E-06 0.258E-06
-9.609 0.251E-06 0.251E-06
-9.608 0.244E-06 0.243E-06
-9.607 0.236E-06 0.236E-06
-9.606 0.230E-06 0.230E-06
-9.605 0.223E-06 0.223E-06
-9.604 0.216E-06 0.216E-06
-9.603 0.210E-06 0.210E-06
-9.602 0.204E-06 0.204E-06
-9.601 0.198E-06 0.198E-06
-9.600 0.192E-06 0.192E-06
-9.599 0.187E-06 0.187E-06
-9.598 0.181E-06 0.181E-06
-9.597 0.176E-06 0.176E-06
-9.596 0.171E-06 0.171E-06
-9.595 0.166E-06 0.166E-06
-9.594 0.161E-06 0.161E-06
-9.593 0.156E-06 0.156E-06
-9.592 0.152E-06 0.152E-06
-9.591 0.147E-06 0.147E-06
-9.590 0.143E-06 0.143E-06
-9.589 0.139E-06 0.139E-06
-9.588 0.135E-06 0.134E-06
-9.587 0.131E-06 0.130E-06
-9.586 0.127E-06 0.127E-06
-9.585 0.123E-06 0.123E-06
-9.584 0.119E-06 0.119E-06
-9.583 0.116E-06 0.116E-06
-9.582 0.112E-06 0.112E-06
-9.581 0.109E-06 0.109E-06
-9.580 0.106E-06 0.106E-06
-9.579 0.103E-06 0.103E-06
-9.578 0.996E-07 0.995E-07
-9.577 0.966E-07 0.965E-07
-9.576 0.937E-07 0.937E-07
-9.575 0.909E-07 0.909E-07
-9.574 0.882E-07 0.882E-07
-9.573 0.856E-07 0.855E-07
-9.572 0.830E-07 0.830E-07
-9.571 0.805E-07 0.805E-07
-9.570 0.781E-07 0.781E-07
-9.569 0.758E-07 0.757E-07
-9.568 0.735E-07 0.735E-07
-9.567 0.713E-07 0.713E-07
-9.566 0.691E-07 0.691E-07
-9.565 0.671E-07 0.670E-07
-9.564 0.650E-07 0.650E-07
-9.563 0.631E-07 0.631E-07
-9.562 0.612E-07 0.612E-07
-9.561 0.593E-07 0.593E-07
-9.560 0.575E-07 0.575E-07
-9.559 0.558E-07 0.558E-07
-9.558 0.541E-07 0.541E-07
-9.557 0.525E-07 0.524E-07
-9.556 0.509E-07 0.509E-07
-9.555 0.493E-07 0.493E-07
-9.554 0.478E-07 0.478E-07
-9.553 0.464E-07 0.464E-07
-9.552 0.450E-07 0.450E-07
-9.551 0.436E-07 0.436E-07
-9.550 0.423E-07 0.423E-07
-9.549 0.410E-07 0.410E-07
-9.548 0.397E-07 0.397E-07
-9.547 0.385E-07 0.385E-07
-9.546 0.373E-07 0.373E-07
-9.545 0.362E-07 0.362E-07
-9.544 0.351E-07 0.351E-07
-9.543 0.340E-07 0.340E-07
-9.542 0.330E-07 0.330E-07
-9.541 0.320E-07 0.319E-07
-9.540 0.310E-07 0.310E-07
-9.539 0.300E-07 0.300E-07
-9.538 0.291E-07 0.291E-07
-9.537 0.282E-07 0.282E-07
-9.536 0.273E-07 0.273E-07
-9.535 0.265E-07 0.265E-07
-9.534 0.257E-07 0.257E-07
-9.533 0.249E-07 0.249E-07
-9.532 0.241E-07 0.241E-07
-9.531 0.234E-07 0.234E-07
-9.530 0.226E-07 0.226E-07
-9.529 0.219E-07 0.219E-07
-9.528 0.213E-07 0.212E-07
-9.527 0.206E-07 0.206E-07
-9.526 0.200E-07 0.199E-07
-9.525 0.193E-07 0.193E-07
-9.524 0.187E-07 0.187E-07
-9.523 0.181E-07 0.181E-07
-9.522 0.176E-07 0.176E-07
-9.521 0.170E-07 0.170E-07
-9.520 0.165E-07 0.165E-07
-9.519 0.160E-07 0.160E-07
-9.518 0.155E-07 0.155E-07
-9.517 0.150E-07 0.150E-07
-9.516 0.145E-07 0.145E-07
-9.515 0.141E-07 0.141E-07
-9.514 0.136E-07 0.136E-07
-9.513 0.132E-07 0.132E-07
-9.512 0.128E-07 0.128E-07
-9.511 0.124E-07 0.124E-07
-9.510 0.120E-07 0.120E-07
-9.509 0.116E-07 0.116E-07
-9.508 0.113E-07 0.112E-07
-9.507 0.109E-07 0.109E-07
-9.506 0.106E-07 0.105E-07
-9.505 0.102E-07 0.102E-07
-9.504 0.989E-08 0.989E-08
-9.503 0.958E-08 0.958E-08
-9.502 0.928E-08 0.927E-08
-9.501 0.898E-08 0.898E-08
-9.500 0.870E-08 0.869E-08
-9.499 0.842E-08 0.842E-08
-9.498 0.815E-08 0.815E-08
-9.497 0.789E-08 0.789E-08
-9.496 0.764E-08 0.764E-08
-9.495 0.740E-08 0.739E-08
-9.494 0.716E-08 0.716E-08
-9.493 0.693E-08 0.693E-08
-9.492 0.671E-08 0.671E-08
-9.491 0.650E-08 0.649E-08
-9.490 0.629E-08 0.628E-08
-9.489 0.609E-08 0.608E-08
-9.488 0.589E-08 0.589E-08
-9.487 0.570E-08 0.570E-08
-9.486 0.552E-08 0.552E-08
-9.485 0.534E-08 0.534E-08
-9.484 0.517E-08 0.517E-08
-9.483 0.500E-08 0.500E-08
-9.482 0.484E-08 0.484E-08
-9.481 0.468E-08 0.468E-08
-9.480 0.453E-08 0.453E-08
-9.479 0.439E-08 0.438E-08
-9.478 0.424E-08 0.424E-08
-9.477 0.411E-08 0.410E-08
-9.476 0.397E-08 0.397E-08
-9.475 0.384E-08 0.384E-08
-9.474 0.372E-08 0.372E-08
-9.473 0.360E-08 0.360E-08
-9.472 0.348E-08 0.348E-08
-9.471 0.337E-08 0.337E-08
-9.470 0.326E-08 0.326E-08
-9.469 0.315E-08 0.315E-08
-9.468 0.305E-08 0.305E-08
-9.467 0.295E-08 0.295E-08
-9.466 0.285E-08 0.285E-08
-9.465 0.276E-08 0.276E-08
-9.464 0.267E-08 0.267E-08
-9.463 0.258E-08 0.258E-08
-9.462 0.250E-08 0.250E-08
-9.461 0.242E-08 0.241E-08
-9.460 0.234E-08 0.233E-08
-9.459 0.226E-08 0.226E-08
-9.458 0.218E-08 0.218E-08
-9.457 0.211E-08 0.211E-08
-9.456 0.204E-08 0.204E-08
-9.455 0.198E-08 0.197E-08
-9.454 0.191E-08 0.191E-08
-9.453 0.185E-08 0.185E-08
-9.452 0.179E-08 0.178E-08
-9.451 0.173E-08 0.173E-08
-9.450 0.167E-08 0.167E-08
-9.449 0.161E-08 0.161E-08
-9.448 0.156E-08 0.156E-08
-9.447 0.151E-08 0.151E-08
-9.446 0.146E-08 0.146E-08
-9.445 0.141E-08 0.141E-08
-9.444 0.136E-08 0.136E-08
-9.443 0.132E-08 0.132E-08
-9.442 0.127E-08 0.127E-08
-9.441 0.123E-08 0.123E-08
-9.440 0.119E-08 0.119E-08
-9.439 0.115E-08 0.115E-08
-9.438 0.111E-08 0.111E-08
-9.437 0.107E-08 0.107E-08
-9.436 0.104E-08 0.104E-08
-9.435 0.100E-08 0.100E-08
-9.434 0.968E-09 0.968E-09
-9.433 0.936E-09 0.935E-09
-9.432 0.904E-09 0.903E-09
-9.431 0.873E-09 0.873E-09
-9.430 0.844E-09 0.843E-09
-9.429 0.815E-09 0.815E-09
-9.428 0.788E-09 0.787E-09
-9.427 0.761E-09 0.761E-09
-9.426 0.735E-09 0.735E-09
-9.425 0.710E-09 0.710E-09
-9.424 0.686E-09 0.685E-09
-9.423 0.662E-09 0.662E-09
-9.422 0.640E-09 0.639E-09
-9.421 0.618E-09 0.617E-09
-9.420 0.597E-09 0.596E-09
-9.419 0.576E-09 0.576E-09
-9.418 0.556E-09 0.556E-09
-9.417 0.537E-09 0.537E-09
-9.416 0.519E-09 0.518E-09
-9.415 0.501E-09 0.501E-09
-9.414 0.483E-09 0.483E-09
-9.413 0.467E-09 0.467E-09
-9.412 0.451E-09 0.450E-09
-9.411 0.435E-09 0.435E-09
-9.410 0.420E-09 0.420E-09
-9.409 0.405E-09 0.405E-09
-9.408 0.391E-09 0.391E-09
-9.407 0.378E-09 0.377E-09
-9.406 0.364E-09 0.364E-09
-9.405 0.351E-09 0.351E-09
-9.404 0.339E-09 0.339E-09
-9.403 0.327E-09 0.327E-09
-9.402 0.316E-09 0.316E-09
-9.401 0.305E-09 0.305E-09
-9.400 0.294E-09 0.294E-09
-9.399 0.284E-09 0.284E-09
-9.398 0.273E-09 0.273E-09
-9.397 0.264E-09 0.264E-09
-9.396 0.254E-09 0.254E-09
-9.395 0.245E-09 0.245E-09
-9.394 0.237E-09 0.237E-09
-9.393 0.228E-09 0.228E-09
-9.392 0.220E-09 0.220E-09
-9.391 0.212E-09 0.212E-09
-9.390 0.205E-09 0.204E-09
-9.389 0.197E-09 0.197E-09
-9.388 0.190E-09 0.190E-09
-9.387 0.183E-09 0.183E-09
-9.386 0.176E-09 0.176E-09
-9.385 0.170E-09 0.170E-09
-9.384 0.164E-09 0.164E-09
-9.383 0.158E-09 0.158E-09
-9.382 0.152E-09 0.152E-09
-9.381 0.146E-09 0.146E-09
-9.380 0.141E-09 0.141E-09
-9.379 0.136E-09 0.136E-09
-9.378 0.131E-09 0.131E-09
-9.377 0.126E-09 0.126E-09
-9.376 0.121E-09 0.121E-09
-9.375 0.117E-09 0.117E-09
-9.374 0.112E-09 0.112E-09
-9.373 0.108E-09 0.108E-09
-9.372 0.104E-09 0.104E-09
-9.371 0.100E-09 0.999E-10
-9.370 0.962E-10 0.962E-10
-9.369 0.927E-10 0.926E-10
-9.368 0.892E-10 0.891E-10
-9.367 0.855E-10 0.854E-10
-9.366 0.822E-10 0.821E-10
-9.365 0.789E-10 0.789E-10
-9.364 0.758E-10 0.758E-10
-9.363 0.730E-10 0.729E-10
-9.362 0.701E-10 0.700E-10
-9.361 0.671E-10 0.671E-10
-9.360 0.644E-10 0.644E-10
-9.359 0.619E-10 0.618E-10
-9.358 0.595E-10 0.594E-10
-9.357 0.571E-10 0.571E-10
-9.356 0.548E-10 0.548E-10
-9.355 0.526E-10 0.526E-10
-9.354 0.504E-10 0.504E-10
-9.353 0.480E-10 0.480E-10
-9.352 0.459E-10 0.459E-10
-9.351 0.441E-10 0.440E-10
-9.350 0.424E-10 0.423E-10
-9.349 0.406E-10 0.406E-10
-9.348 0.387E-10 0.387E-10
-9.347 0.371E-10 0.371E-10
-9.346 0.353E-10 0.353E-10
-9.345 0.337E-10 0.337E-10
-9.344 0.321E-10 0.321E-10
-9.343 0.307E-10 0.307E-10
-9.342 0.295E-10 0.295E-10
-9.341 0.279E-10 0.279E-10
-9.340 0.264E-10 0.264E-10
-9.339 0.254E-10 0.254E-10
-9.338 0.242E-10 0.242E-10
-9.337 0.232E-10 0.232E-10
-9.336 0.217E-10 0.217E-10
-9.335 0.205E-10 0.205E-10
-9.334 0.195E-10 0.195E-10
-9.333 0.185E-10 0.185E-10
-9.332 0.177E-10 0.177E-10
-9.331 0.170E-10 0.170E-10
-9.330 0.155E-10 0.155E-10
-9.329 0.145E-10 0.145E-10
-9.328 0.138E-10 0.138E-10
-9.327 0.131E-10 0.131E-10
-9.326 0.123E-10 0.123E-10
-9.325 0.116E-10 0.116E-10
-9.324 0.106E-10 0.106E-10
-9.323 0.101E-10 0.101E-10
-9.322 0.927E-11 0.926E-11
-9.321 0.837E-11 0.837E-11
-9.320 0.791E-11 0.791E-11
-9.319 0.751E-11 0.750E-11
-9.318 0.685E-11 0.684E-11
-9.317 0.613E-11 0.612E-11
-9.316 0.530E-11 0.530E-11
-9.315 0.508E-11 0.508E-11
-9.314 0.454E-11 0.454E-11
-9.313 0.412E-11 0.411E-11
-9.312 0.334E-11 0.333E-11
-9.311 0.295E-11 0.294E-11
-9.310 0.254E-11 0.254E-11
-9.309 0.221E-11 0.221E-11
-9.308 0.160E-11 0.160E-11
-9.307 0.127E-11 0.127E-11
-9.306 0.879E-12 0.879E-12
-9.305 0.444E-12 0.443E-12
-9.304 0.130E-12 0.130E-12
-9.303 0.000E+00 0.000E+00
-9.302 0.000E+00 0.000E+00
-9.301 0.000E+00 0.000E+00
-9.300 0.000E+00 0.000E+00
-9.299 0.000E+00 0.000E+00
-9.298 0.000E+00 0.000E+00
-9.297 0.000E+00 0.000E+00
-9.296 0.000E+00 0.000E+00
-9.295 0.000E+00 0.000E+00
-9.294 0.000E+00 0.000E+00
-9.293 0.000E+00 0.000E+00
-9.292 0.000E+00 0.000E+00
-9.291 0.000E+00 0.000E+00
-9.290 0.000E+00 0.000E+00
-9.289 0.000E+00 0.000E+00
-9.288 0.000E+00 0.000E+00
-9.287 0.000E+00 0.000E+00
-9.286 0.000E+00 0.000E+00
-9.285 0.000E+00 0.000E+00
-9.284 0.000E+00 0.000E+00
-9.283 0.000E+00 0.000E+00
-9.282 0.000E+00 0.000E+00
-9.281 0.000E+00 0.000E+00
-9.280 0.000E+00 0.000E+00
-9.279 0.000E+00 0.000E+00
-9.278 0.000E+00 0.000E+00
-9.277 0.000E+00 0.000E+00
-9.276 0.000E+00 0.000E+00
-9.275 0.000E+00 0.000E+00
-9.274 0.000E+00 0.000E+00
-9.273 0.000E+00 0.000E+00
-9.272 0.000E+00 0.000E+00
-9.271 0.000E+00 0.000E+00
-9.270 0.000E+00 0.000E+00
-9.269 0.000E+00 0.000E+00
-9.268 0.000E+00 0.000E+00
-9.267 0.000E+00 0.000E+00
-9.266 0.000E+00 0.000E+00
-9.265 0.000E+00 0.000E+00
-9.264 0.000E+00 0.000E+00
-9.263 0.000E+00 0.000E+00
-9.262 0.000E+00 0.000E+00
