E(eV) pdos(E) 
-10.000 0.266E-06
-9.999 0.260E-06
-9.998 0.253E-06
-9.997 0.247E-06
-9.996 0.241E-06
-9.995 0.235E-06
-9.994 0.229E-06
-9.993 0.224E-06
-9.992 0.219E-06
-9.991 0.213E-06
-9.990 0.208E-06
-9.989 0.203E-06
-9.988 0.198E-06
-9.987 0.192E-06
-9.986 0.188E-06
-9.985 0.183E-06
-9.984 0.179E-06
-9.983 0.174E-06
-9.982 0.170E-06
-9.981 0.166E-06
-9.980 0.162E-06
-9.979 0.157E-06
-9.978 0.153E-06
-9.977 0.150E-06
-9.976 0.146E-06
-9.975 0.143E-06
-9.974 0.138E-06
-9.973 0.135E-06
-9.972 0.132E-06
-9.971 0.129E-06
-9.970 0.126E-06
-9.969 0.123E-06
-9.968 0.119E-06
-9.967 0.116E-06
-9.966 0.113E-06
-9.965 0.110E-06
-9.964 0.108E-06
-9.963 0.105E-06
-9.962 0.102E-06
-9.961 0.995E-07
-9.960 0.969E-07
-9.959 0.944E-07
-9.958 0.920E-07
-9.957 0.896E-07
-9.956 0.873E-07
-9.955 0.851E-07
-9.954 0.830E-07
-9.953 0.808E-07
-9.952 0.787E-07
-9.951 0.768E-07
-9.950 0.747E-07
-9.949 0.728E-07
-9.948 0.709E-07
-9.947 0.691E-07
-9.946 0.673E-07
-9.945 0.655E-07
-9.944 0.639E-07
-9.943 0.623E-07
-9.942 0.606E-07
-9.941 0.590E-07
-9.940 0.575E-07
-9.939 0.560E-07
-9.938 0.546E-07
-9.937 0.532E-07
-9.936 0.517E-07
-9.935 0.504E-07
-9.934 0.491E-07
-9.933 0.478E-07
-9.932 0.465E-07
-9.931 0.454E-07
-9.930 0.441E-07
-9.929 0.429E-07
-9.928 0.419E-07
-9.927 0.407E-07
-9.926 0.397E-07
-9.925 0.386E-07
-9.924 0.377E-07
-9.923 0.366E-07
-9.922 0.356E-07
-9.921 0.347E-07
-9.920 0.337E-07
-9.919 0.329E-07
-9.918 0.320E-07
-9.917 0.312E-07
-9.916 0.304E-07
-9.915 0.295E-07
-9.914 0.288E-07
-9.913 0.280E-07
-9.912 0.272E-07
-9.911 0.265E-07
-9.910 0.258E-07
-9.909 0.251E-07
-9.908 0.244E-07
-9.907 0.238E-07
-9.906 0.232E-07
-9.905 0.225E-07
-9.904 0.219E-07
-9.903 0.214E-07
-9.902 0.207E-07
-9.901 0.202E-07
-9.900 0.197E-07
-9.899 0.191E-07
-9.898 0.186E-07
-9.897 0.181E-07
-9.896 0.176E-07
-9.895 0.171E-07
-9.894 0.167E-07
-9.893 0.162E-07
-9.892 0.158E-07
-9.891 0.153E-07
-9.890 0.149E-07
-9.889 0.145E-07
-9.888 0.141E-07
-9.887 0.138E-07
-9.886 0.133E-07
-9.885 0.130E-07
-9.884 0.126E-07
-9.883 0.123E-07
-9.882 0.120E-07
-9.881 0.116E-07
-9.880 0.113E-07
-9.879 0.110E-07
-9.878 0.107E-07
-9.877 0.104E-07
-9.876 0.101E-07
-9.875 0.983E-08
-9.874 0.956E-08
-9.873 0.929E-08
-9.872 0.904E-08
-9.871 0.879E-08
-9.870 0.854E-08
-9.869 0.831E-08
-9.868 0.808E-08
-9.867 0.786E-08
-9.866 0.763E-08
-9.865 0.742E-08
-9.864 0.721E-08
-9.863 0.701E-08
-9.862 0.682E-08
-9.861 0.663E-08
-9.860 0.644E-08
-9.859 0.626E-08
-9.858 0.608E-08
-9.857 0.591E-08
-9.856 0.575E-08
-9.855 0.558E-08
-9.854 0.543E-08
-9.853 0.527E-08
-9.852 0.512E-08
-9.851 0.498E-08
-9.850 0.484E-08
-9.849 0.470E-08
-9.848 0.457E-08
-9.847 0.444E-08
-9.846 0.431E-08
-9.845 0.419E-08
-9.844 0.408E-08
-9.843 0.396E-08
-9.842 0.384E-08
-9.841 0.374E-08
-9.840 0.363E-08
-9.839 0.353E-08
-9.838 0.342E-08
-9.837 0.333E-08
-9.836 0.323E-08
-9.835 0.314E-08
-9.834 0.305E-08
-9.833 0.297E-08
-9.832 0.288E-08
-9.831 0.280E-08
-9.830 0.271E-08
-9.829 0.264E-08
-9.828 0.256E-08
-9.827 0.249E-08
-9.826 0.241E-08
-9.825 0.234E-08
-9.824 0.228E-08
-9.823 0.221E-08
-9.822 0.215E-08
-9.821 0.209E-08
-9.820 0.202E-08
-9.819 0.196E-08
-9.818 0.191E-08
-9.817 0.185E-08
-9.816 0.180E-08
-9.815 0.175E-08
-9.814 0.170E-08
-9.813 0.164E-08
-9.812 0.160E-08
-9.811 0.155E-08
-9.810 0.150E-08
-9.809 0.146E-08
-9.808 0.142E-08
-9.807 0.138E-08
-9.806 0.134E-08
-9.805 0.129E-08
-9.804 0.126E-08
-9.803 0.122E-08
-9.802 0.119E-08
-9.801 0.115E-08
-9.800 0.111E-08
-9.799 0.108E-08
-9.798 0.105E-08
-9.797 0.102E-08
-9.796 0.990E-09
-9.795 0.960E-09
-9.794 0.932E-09
-9.793 0.904E-09
-9.792 0.878E-09
-9.791 0.851E-09
-9.790 0.826E-09
-9.789 0.801E-09
-9.788 0.778E-09
-9.787 0.755E-09
-9.786 0.731E-09
-9.785 0.710E-09
-9.784 0.689E-09
-9.783 0.668E-09
-9.782 0.648E-09
-9.781 0.629E-09
-9.780 0.610E-09
-9.779 0.591E-09
-9.778 0.574E-09
-9.777 0.557E-09
-9.776 0.540E-09
-9.775 0.524E-09
-9.774 0.508E-09
-9.773 0.492E-09
-9.772 0.477E-09
-9.771 0.463E-09
-9.770 0.448E-09
-9.769 0.436E-09
-9.768 0.422E-09
-9.767 0.409E-09
-9.766 0.397E-09
-9.765 0.385E-09
-9.764 0.373E-09
-9.763 0.362E-09
-9.762 0.351E-09
-9.761 0.340E-09
-9.760 0.330E-09
-9.759 0.319E-09
-9.758 0.310E-09
-9.757 0.300E-09
-9.756 0.291E-09
-9.755 0.282E-09
-9.754 0.274E-09
-9.753 0.265E-09
-9.752 0.257E-09
-9.751 0.249E-09
-9.750 0.242E-09
-9.749 0.234E-09
-9.748 0.227E-09
-9.747 0.220E-09
-9.746 0.213E-09
-9.745 0.207E-09
-9.744 0.199E-09
-9.743 0.194E-09
-9.742 0.188E-09
-9.741 0.181E-09
-9.740 0.176E-09
-9.739 0.171E-09
-9.738 0.165E-09
-9.737 0.160E-09
-9.736 0.155E-09
-9.735 0.151E-09
-9.734 0.145E-09
-9.733 0.141E-09
-9.732 0.137E-09
-9.731 0.133E-09
-9.730 0.128E-09
-9.729 0.124E-09
-9.728 0.120E-09
-9.727 0.117E-09
-9.726 0.112E-09
-9.725 0.109E-09
-9.724 0.106E-09
-9.723 0.102E-09
-9.722 0.991E-10
-9.721 0.960E-10
-9.720 0.929E-10
-9.719 0.901E-10
-9.718 0.872E-10
-9.717 0.845E-10
-9.716 0.818E-10
-9.715 0.792E-10
-9.714 0.767E-10
-9.713 0.743E-10
-9.712 0.718E-10
-9.711 0.696E-10
-9.710 0.674E-10
-9.709 0.653E-10
-9.708 0.631E-10
-9.707 0.611E-10
-9.706 0.592E-10
-9.705 0.573E-10
-9.704 0.555E-10
-9.703 0.537E-10
-9.702 0.520E-10
-9.701 0.503E-10
-9.700 0.487E-10
-9.699 0.471E-10
-9.698 0.456E-10
-9.697 0.441E-10
-9.696 0.428E-10
-9.695 0.414E-10
-9.694 0.400E-10
-9.693 0.387E-10
-9.692 0.375E-10
-9.691 0.363E-10
-9.690 0.351E-10
-9.689 0.340E-10
-9.688 0.329E-10
-9.687 0.318E-10
-9.686 0.308E-10
-9.685 0.298E-10
-9.684 0.288E-10
-9.683 0.279E-10
-9.682 0.270E-10
-9.681 0.261E-10
-9.680 0.253E-10
-9.679 0.244E-10
-9.678 0.237E-10
-9.677 0.228E-10
-9.676 0.221E-10
-9.675 0.213E-10
-9.674 0.207E-10
-9.673 0.200E-10
-9.672 0.193E-10
-9.671 0.187E-10
-9.670 0.182E-10
-9.669 0.175E-10
-9.668 0.169E-10
-9.667 0.164E-10
-9.666 0.158E-10
-9.665 0.153E-10
-9.664 0.148E-10
-9.663 0.143E-10
-9.662 0.138E-10
-9.661 0.134E-10
-9.660 0.130E-10
-9.659 0.125E-10
-9.658 0.121E-10
-9.657 0.117E-10
-9.656 0.114E-10
-9.655 0.109E-10
-9.654 0.106E-10
-9.653 0.102E-10
-9.652 0.989E-11
-9.651 0.956E-11
-9.650 0.924E-11
-9.649 0.893E-11
-9.648 0.863E-11
-9.647 0.834E-11
-9.646 0.803E-11
-9.645 0.771E-11
-9.644 0.745E-11
-9.643 0.715E-11
-9.642 0.692E-11
-9.641 0.669E-11
-9.640 0.641E-11
-9.639 0.620E-11
-9.638 0.600E-11
-9.637 0.575E-11
-9.636 0.556E-11
-9.635 0.537E-11
-9.634 0.516E-11
-9.633 0.497E-11
-9.632 0.480E-11
-9.631 0.464E-11
-9.630 0.449E-11
-9.629 0.433E-11
-9.628 0.419E-11
-9.627 0.404E-11
-9.626 0.390E-11
-9.625 0.378E-11
-9.624 0.365E-11
-9.623 0.352E-11
-9.622 0.340E-11
-9.621 0.329E-11
-9.620 0.318E-11
-9.619 0.306E-11
-9.618 0.297E-11
-9.617 0.286E-11
-9.616 0.277E-11
-9.615 0.267E-11
-9.614 0.257E-11
-9.613 0.249E-11
-9.612 0.240E-11
-9.611 0.232E-11
-9.610 0.224E-11
-9.609 0.217E-11
-9.608 0.210E-11
-9.607 0.202E-11
-9.606 0.195E-11
-9.605 0.188E-11
-9.604 0.182E-11
-9.603 0.176E-11
-9.602 0.169E-11
-9.601 0.164E-11
-9.600 0.159E-11
-9.599 0.152E-11
-9.598 0.148E-11
-9.597 0.143E-11
-9.596 0.137E-11
-9.595 0.133E-11
-9.594 0.128E-11
-9.593 0.123E-11
-9.592 0.119E-11
-9.591 0.115E-11
-9.590 0.111E-11
-9.589 0.107E-11
-9.588 0.104E-11
-9.587 0.999E-12
-9.586 0.964E-12
-9.585 0.930E-12
-9.584 0.898E-12
-9.583 0.866E-12
-9.582 0.836E-12
-9.581 0.807E-12
-9.580 0.779E-12
-9.579 0.751E-12
-9.578 0.725E-12
-9.577 0.699E-12
-9.576 0.675E-12
-9.575 0.651E-12
-9.574 0.628E-12
-9.573 0.594E-12
-9.572 0.574E-12
-9.571 0.531E-12
-9.570 0.511E-12
-9.569 0.493E-12
-9.568 0.476E-12
-9.567 0.434E-12
-9.566 0.419E-12
-9.565 0.404E-12
-9.564 0.390E-12
-9.563 0.377E-12
-9.562 0.363E-12
-9.561 0.324E-12
-9.560 0.312E-12
-9.559 0.301E-12
-9.558 0.290E-12
-9.557 0.281E-12
-9.556 0.270E-12
-9.555 0.233E-12
-9.554 0.224E-12
-9.553 0.217E-12
-9.552 0.209E-12
-9.551 0.202E-12
-9.550 0.166E-12
-9.549 0.146E-12
-9.548 0.140E-12
-9.547 0.135E-12
-9.546 0.131E-12
-9.545 0.126E-12
-9.544 0.118E-12
-9.543 0.114E-12
-9.542 0.102E-12
-9.541 0.984E-13
-9.540 0.950E-13
-9.539 0.915E-13
-9.538 0.883E-13
-9.537 0.762E-13
-9.536 0.734E-13
-9.535 0.708E-13
-9.534 0.683E-13
-9.533 0.659E-13
-9.532 0.635E-13
-9.531 0.612E-13
-9.530 0.483E-13
-9.529 0.466E-13
-9.528 0.449E-13
-9.527 0.433E-13
-9.526 0.418E-13
-9.525 0.403E-13
-9.524 0.388E-13
-9.523 0.251E-13
-9.522 0.242E-13
-9.521 0.233E-13
-9.520 0.224E-13
-9.519 0.217E-13
-9.518 0.742E-14
-9.517 0.716E-14
-9.516 0.000E+00
-9.515 0.000E+00
-9.514 0.000E+00
-9.513 0.000E+00
-9.512 0.000E+00
-9.511 0.000E+00
-9.510 0.000E+00
-9.509 0.000E+00
-9.508 0.000E+00
-9.507 0.000E+00
-9.506 0.000E+00
-9.505 0.000E+00
-9.504 0.000E+00
-9.503 0.000E+00
-9.502 0.000E+00
-9.501 0.000E+00
-9.500 0.000E+00
-9.499 0.000E+00
-9.498 0.000E+00
-9.497 0.000E+00
-9.496 0.000E+00
-9.495 0.000E+00
-9.494 0.000E+00
-9.493 0.000E+00
-9.492 0.000E+00
-9.491 0.000E+00
-9.490 0.000E+00
-9.489 0.000E+00
-9.488 0.000E+00
-9.487 0.000E+00
-9.486 0.000E+00
-9.485 0.000E+00
-9.484 0.000E+00
-9.483 0.000E+00
-9.482 0.000E+00
-9.481 0.000E+00
-9.480 0.000E+00
-9.479 0.000E+00
-9.478 0.000E+00
-9.477 0.000E+00
-9.476 0.000E+00
-9.475 0.000E+00
-9.474 0.000E+00
-9.473 0.000E+00
-9.472 0.000E+00
-9.471 0.000E+00
-9.470 0.000E+00
-9.469 0.000E+00
-9.468 0.000E+00
-9.467 0.000E+00
-9.466 0.000E+00
-9.465 0.000E+00
-9.464 0.000E+00
-9.463 0.000E+00
-9.462 0.000E+00
-9.461 0.000E+00
-9.460 0.000E+00
-9.459 0.000E+00
-9.458 0.000E+00
-9.457 0.000E+00
-9.456 0.000E+00
-9.455 0.000E+00
-9.454 0.000E+00
-9.453 0.000E+00
-9.452 0.000E+00
-9.451 0.000E+00
-9.450 0.000E+00
-9.449 0.000E+00
-9.448 0.000E+00
-9.447 0.000E+00
-9.446 0.000E+00
-9.445 0.000E+00
-9.444 0.000E+00
-9.443 0.000E+00
-9.442 0.000E+00
-9.441 0.000E+00
-9.440 0.000E+00
-9.439 0.000E+00
-9.438 0.000E+00
-9.437 0.000E+00
-9.436 0.000E+00
-9.435 0.000E+00
-9.434 0.000E+00
-9.433 0.000E+00
-9.432 0.000E+00
-9.431 0.000E+00
-9.430 0.000E+00
-9.429 0.000E+00
-9.428 0.000E+00
-9.427 0.000E+00
-9.426 0.000E+00
-9.425 0.000E+00
-9.424 0.000E+00
-9.423 0.000E+00
-9.422 0.000E+00
-9.421 0.000E+00
-9.420 0.000E+00
-9.419 0.000E+00
-9.418 0.000E+00
-9.417 0.000E+00
-9.416 0.000E+00
-9.415 0.000E+00
-9.414 0.000E+00
-9.413 0.000E+00
-9.412 0.000E+00
-9.411 0.000E+00
-9.410 0.000E+00
-9.409 0.000E+00
-9.408 0.000E+00
-9.407 0.000E+00
-9.406 0.000E+00
-9.405 0.000E+00
-9.404 0.000E+00
-9.403 0.000E+00
-9.402 0.000E+00
-9.401 0.000E+00
-9.400 0.000E+00
-9.399 0.000E+00
-9.398 0.000E+00
-9.397 0.000E+00
-9.396 0.000E+00
-9.395 0.000E+00
-9.394 0.000E+00
-9.393 0.000E+00
-9.392 0.000E+00
-9.391 0.000E+00
-9.390 0.000E+00
-9.389 0.000E+00
-9.388 0.000E+00
-9.387 0.000E+00
-9.386 0.000E+00
-9.385 0.000E+00
-9.384 0.000E+00
-9.383 0.000E+00
-9.382 0.000E+00
-9.381 0.000E+00
-9.380 0.000E+00
-9.379 0.000E+00
-9.378 0.000E+00
-9.377 0.000E+00
-9.376 0.000E+00
-9.375 0.000E+00
-9.374 0.000E+00
-9.373 0.000E+00
-9.372 0.000E+00
-9.371 0.000E+00
-9.370 0.000E+00
-9.369 0.000E+00
-9.368 0.000E+00
-9.367 0.000E+00
-9.366 0.000E+00
-9.365 0.000E+00
-9.364 0.000E+00
-9.363 0.000E+00
-9.362 0.000E+00
-9.361 0.000E+00
-9.360 0.000E+00
-9.359 0.000E+00
-9.358 0.000E+00
-9.357 0.000E+00
-9.356 0.000E+00
-9.355 0.000E+00
-9.354 0.000E+00
-9.353 0.000E+00
-9.352 0.000E+00
-9.351 0.000E+00
-9.350 0.000E+00
-9.349 0.000E+00
-9.348 0.000E+00
-9.347 0.000E+00
-9.346 0.000E+00
-9.345 0.000E+00
-9.344 0.000E+00
-9.343 0.000E+00
-9.342 0.000E+00
-9.341 0.000E+00
-9.340 0.000E+00
-9.339 0.000E+00
-9.338 0.000E+00
-9.337 0.000E+00
-9.336 0.000E+00
-9.335 0.000E+00
-9.334 0.000E+00
-9.333 0.000E+00
-9.332 0.000E+00
-9.331 0.000E+00
-9.330 0.000E+00
-9.329 0.000E+00
-9.328 0.000E+00
-9.327 0.000E+00
-9.326 0.000E+00
-9.325 0.000E+00
-9.324 0.000E+00
-9.323 0.000E+00
-9.322 0.000E+00
-9.321 0.000E+00
-9.320 0.000E+00
-9.319 0.000E+00
-9.318 0.000E+00
-9.317 0.000E+00
-9.316 0.000E+00
-9.315 0.000E+00
-9.314 0.000E+00
-9.313 0.000E+00
-9.312 0.000E+00
-9.311 0.000E+00
-9.310 0.000E+00
-9.309 0.000E+00
-9.308 0.000E+00
-9.307 0.000E+00
-9.306 0.000E+00
-9.305 0.000E+00
-9.304 0.000E+00
-9.303 0.000E+00
-9.302 0.000E+00
-9.301 0.000E+00
-9.300 0.000E+00
-9.299 0.000E+00
-9.298 0.000E+00
-9.297 0.000E+00
-9.296 0.000E+00
-9.295 0.000E+00
-9.294 0.000E+00
-9.293 0.000E+00
-9.292 0.000E+00
-9.291 0.000E+00
-9.290 0.000E+00
-9.289 0.000E+00
-9.288 0.000E+00
-9.287 0.000E+00
-9.286 0.000E+00
-9.285 0.000E+00
-9.284 0.000E+00
-9.283 0.000E+00
-9.282 0.000E+00
-9.281 0.000E+00
-9.280 0.000E+00
-9.279 0.000E+00
-9.278 0.000E+00
-9.277 0.000E+00
-9.276 0.000E+00
-9.275 0.000E+00
-9.274 0.000E+00
-9.273 0.000E+00
-9.272 0.000E+00
-9.271 0.000E+00
-9.270 0.000E+00
-9.269 0.000E+00
-9.268 0.000E+00
-9.267 0.000E+00
-9.266 0.000E+00
-9.265 0.000E+00
-9.264 0.000E+00
-9.263 0.000E+00
-9.262 0.000E+00
-9.261 0.000E+00
-9.260 0.000E+00
-9.259 0.000E+00
-9.258 0.000E+00
-9.257 0.000E+00
-9.256 0.000E+00
-9.255 0.000E+00
-9.254 0.000E+00
-9.253 0.000E+00
-9.252 0.000E+00
-9.251 0.000E+00
-9.250 0.000E+00
-9.249 0.000E+00
-9.248 0.000E+00
-9.247 0.000E+00
-9.246 0.000E+00
-9.245 0.000E+00
-9.244 0.000E+00
-9.243 0.000E+00
-9.242 0.000E+00
-9.241 0.000E+00
-9.240 0.000E+00
-9.239 0.000E+00
-9.238 0.000E+00
-9.237 0.000E+00
-9.236 0.000E+00
-9.235 0.000E+00
-9.234 0.000E+00
-9.233 0.000E+00
-9.232 0.000E+00
-9.231 0.000E+00
-9.230 0.000E+00
-9.229 0.000E+00
-9.228 0.000E+00
-9.227 0.000E+00
-9.226 0.000E+00
-9.225 0.000E+00
-9.224 0.000E+00
-9.223 0.000E+00
-9.222 0.000E+00
-9.221 0.000E+00
-9.220 0.000E+00
-9.219 0.000E+00
-9.218 0.000E+00
-9.217 0.000E+00
-9.216 0.000E+00
-9.215 0.000E+00
-9.214 0.000E+00
-9.213 0.000E+00
-9.212 0.000E+00
-9.211 0.000E+00
-9.210 0.000E+00
-9.209 0.000E+00
-9.208 0.000E+00
-9.207 0.000E+00
-9.206 0.000E+00
-9.205 0.000E+00
-9.204 0.000E+00
-9.203 0.000E+00
-9.202 0.000E+00
-9.201 0.000E+00
-9.200 0.000E+00
-9.199 0.000E+00
-9.198 0.000E+00
-9.197 0.000E+00
-9.196 0.000E+00
-9.195 0.000E+00
-9.194 0.000E+00
-9.193 0.000E+00
-9.192 0.000E+00
-9.191 0.000E+00
-9.190 0.000E+00
-9.189 0.000E+00
-9.188 0.000E+00
-9.187 0.000E+00
-9.186 0.000E+00
-9.185 0.000E+00
-9.184 0.000E+00
-9.183 0.000E+00
-9.182 0.000E+00
-9.181 0.000E+00
-9.180 0.000E+00
-9.179 0.000E+00
-9.178 0.000E+00
-9.177 0.000E+00
-9.176 0.000E+00
-9.175 0.000E+00
-9.174 0.000E+00
-9.173 0.000E+00
-9.172 0.000E+00
-9.171 0.000E+00
-9.170 0.000E+00
-9.169 0.000E+00
-9.168 0.000E+00
-9.167 0.000E+00
-9.166 0.000E+00
-9.165 0.000E+00
-9.164 0.000E+00
-9.163 0.000E+00
-9.162 0.000E+00
-9.161 0.000E+00
-9.160 0.000E+00
-9.159 0.000E+00
-9.158 0.000E+00
-9.157 0.000E+00
-9.156 0.000E+00
-9.155 0.000E+00
-9.154 0.000E+00
-9.153 0.000E+00
-9.152 0.000E+00
-9.151 0.000E+00
-9.150 0.000E+00
-9.149 0.000E+00
-9.148 0.000E+00
-9.147 0.000E+00
-9.146 0.000E+00
-9.145 0.000E+00
-9.144 0.000E+00
-9.143 0.000E+00
-9.142 0.000E+00
-9.141 0.000E+00
-9.140 0.000E+00
-9.139 0.000E+00
-9.138 0.000E+00
-9.137 0.000E+00
-9.136 0.000E+00
-9.135 0.000E+00
-9.134 0.000E+00
-9.133 0.000E+00
-9.132 0.000E+00
-9.131 0.000E+00
-9.130 0.000E+00
-9.129 0.000E+00
-9.128 0.000E+00
-9.127 0.000E+00
-9.126 0.000E+00
-9.125 0.000E+00
-9.124 0.000E+00
-9.123 0.000E+00
-9.122 0.000E+00
-9.121 0.000E+00
-9.120 0.000E+00
-9.119 0.000E+00
-9.118 0.000E+00
-9.117 0.000E+00
-9.116 0.000E+00
-9.115 0.000E+00
-9.114 0.000E+00
-9.113 0.000E+00
-9.112 0.000E+00
-9.111 0.000E+00
-9.110 0.000E+00
-9.109 0.000E+00
-9.108 0.000E+00
-9.107 0.000E+00
-9.106 0.000E+00
-9.105 0.000E+00
-9.104 0.000E+00
-9.103 0.000E+00
-9.102 0.000E+00
-9.101 0.000E+00
-9.100 0.000E+00
-9.099 0.000E+00
-9.098 0.000E+00
-9.097 0.000E+00
-9.096 0.000E+00
-9.095 0.000E+00
-9.094 0.000E+00
-9.093 0.000E+00
-9.092 0.000E+00
-9.091 0.000E+00
-9.090 0.000E+00
-9.089 0.000E+00
-9.088 0.000E+00
-9.087 0.000E+00
-9.086 0.000E+00
-9.085 0.000E+00
-9.084 0.000E+00
-9.083 0.000E+00
-9.082 0.000E+00
-9.081 0.000E+00
-9.080 0.000E+00
-9.079 0.000E+00
-9.078 0.000E+00
-9.077 0.000E+00
-9.076 0.000E+00
-9.075 0.000E+00
-9.074 0.000E+00
-9.073 0.000E+00
-9.072 0.000E+00
-9.071 0.000E+00
-9.070 0.000E+00
-9.069 0.000E+00
-9.068 0.000E+00
-9.067 0.000E+00
-9.066 0.000E+00
-9.065 0.000E+00
-9.064 0.000E+00
-9.063 0.000E+00
-9.062 0.000E+00
-9.061 0.000E+00
-9.060 0.000E+00
-9.059 0.000E+00
-9.058 0.000E+00
-9.057 0.000E+00
-9.056 0.000E+00
-9.055 0.000E+00
-9.054 0.000E+00
-9.053 0.000E+00
-9.052 0.000E+00
-9.051 0.000E+00
-9.050 0.000E+00
-9.049 0.000E+00
-9.048 0.000E+00
-9.047 0.000E+00
-9.046 0.000E+00
-9.045 0.000E+00
-9.044 0.000E+00
-9.043 0.000E+00
-9.042 0.000E+00
-9.041 0.000E+00
-9.040 0.000E+00
-9.039 0.000E+00
-9.038 0.000E+00
-9.037 0.000E+00
-9.036 0.000E+00
-9.035 0.000E+00
-9.034 0.000E+00
-9.033 0.000E+00
-9.032 0.000E+00
-9.031 0.000E+00
-9.030 0.000E+00
-9.029 0.000E+00
-9.028 0.000E+00
-9.027 0.000E+00
-9.026 0.000E+00
-9.025 0.000E+00
-9.024 0.000E+00
-9.023 0.000E+00
-9.022 0.000E+00
-9.021 0.000E+00
-9.020 0.000E+00
-9.019 0.000E+00
-9.018 0.000E+00
-9.017 0.000E+00
-9.016 0.000E+00
-9.015 0.000E+00
-9.014 0.000E+00
-9.013 0.000E+00
-9.012 0.000E+00
-9.011 0.000E+00
-9.010 0.000E+00
-9.009 0.000E+00
-9.008 0.000E+00
-9.007 0.000E+00
-9.006 0.000E+00
-9.005 0.000E+00
-9.004 0.000E+00
-9.003 0.000E+00
-9.002 0.000E+00
-9.001 0.000E+00
-9.000 0.000E+00
-8.999 0.000E+00
-8.998 0.000E+00
-8.997 0.000E+00
-8.996 0.000E+00
-8.995 0.000E+00
-8.994 0.000E+00
-8.993 0.000E+00
-8.992 0.000E+00
-8.991 0.000E+00
-8.990 0.000E+00
-8.989 0.000E+00
-8.988 0.000E+00
-8.987 0.000E+00
-8.986 0.000E+00
-8.985 0.000E+00
-8.984 0.000E+00
-8.983 0.000E+00
-8.982 0.000E+00
-8.981 0.000E+00
-8.980 0.000E+00
-8.979 0.000E+00
-8.978 0.000E+00
-8.977 0.000E+00
-8.976 0.000E+00
-8.975 0.000E+00
-8.974 0.000E+00
-8.973 0.000E+00
-8.972 0.000E+00
-8.971 0.000E+00
-8.970 0.000E+00
-8.969 0.000E+00
-8.968 0.000E+00
-8.967 0.000E+00
-8.966 0.000E+00
-8.965 0.000E+00
-8.964 0.000E+00
-8.963 0.000E+00
-8.962 0.000E+00
-8.961 0.000E+00
-8.960 0.000E+00
-8.959 0.000E+00
-8.958 0.000E+00
-8.957 0.000E+00
-8.956 0.000E+00
-8.955 0.000E+00
-8.954 0.000E+00
-8.953 0.000E+00
-8.952 0.000E+00
-8.951 0.000E+00
-8.950 0.000E+00
-8.949 0.000E+00
-8.948 0.000E+00
-8.947 0.000E+00
-8.946 0.000E+00
-8.945 0.000E+00
-8.944 0.000E+00
-8.943 0.000E+00
-8.942 0.000E+00
-8.941 0.000E+00
-8.940 0.000E+00
-8.939 0.000E+00
-8.938 0.000E+00
-8.937 0.000E+00
-8.936 0.000E+00
-8.935 0.000E+00
-8.934 0.000E+00
-8.933 0.000E+00
-8.932 0.000E+00
-8.931 0.000E+00
-8.930 0.000E+00
-8.929 0.000E+00
-8.928 0.000E+00
-8.927 0.000E+00
-8.926 0.000E+00
-8.925 0.000E+00
-8.924 0.000E+00
-8.923 0.000E+00
-8.922 0.000E+00
-8.921 0.000E+00
-8.920 0.000E+00
-8.919 0.000E+00
-8.918 0.000E+00
-8.917 0.000E+00
-8.916 0.000E+00
-8.915 0.000E+00
-8.914 0.000E+00
-8.913 0.000E+00
-8.912 0.000E+00
-8.911 0.000E+00
-8.910 0.000E+00
-8.909 0.000E+00
-8.908 0.000E+00
-8.907 0.000E+00
-8.906 0.000E+00
-8.905 0.000E+00
-8.904 0.000E+00
-8.903 0.000E+00
-8.902 0.000E+00
-8.901 0.000E+00
-8.900 0.000E+00
-8.899 0.000E+00
-8.898 0.000E+00
-8.897 0.000E+00
-8.896 0.000E+00
-8.895 0.000E+00
-8.894 0.000E+00
-8.893 0.000E+00
-8.892 0.000E+00
-8.891 0.000E+00
-8.890 0.000E+00
-8.889 0.000E+00
-8.888 0.000E+00
-8.887 0.000E+00
-8.886 0.000E+00
-8.885 0.000E+00
-8.884 0.000E+00
-8.883 0.000E+00
-8.882 0.000E+00
-8.881 0.000E+00
-8.880 0.000E+00
-8.879 0.000E+00
-8.878 0.000E+00
-8.877 0.000E+00
-8.876 0.000E+00
-8.875 0.000E+00
-8.874 0.000E+00
-8.873 0.000E+00
-8.872 0.000E+00
-8.871 0.000E+00
-8.870 0.000E+00
-8.869 0.000E+00
-8.868 0.000E+00
-8.867 0.000E+00
-8.866 0.000E+00
-8.865 0.000E+00
-8.864 0.000E+00
-8.863 0.000E+00
-8.862 0.000E+00
-8.861 0.000E+00
-8.860 0.000E+00
-8.859 0.000E+00
-8.858 0.000E+00
-8.857 0.000E+00
-8.856 0.000E+00
-8.855 0.000E+00
-8.854 0.000E+00
-8.853 0.000E+00
-8.852 0.000E+00
-8.851 0.000E+00
-8.850 0.000E+00
-8.849 0.000E+00
-8.848 0.000E+00
-8.847 0.000E+00
-8.846 0.000E+00
-8.845 0.000E+00
-8.844 0.000E+00
-8.843 0.000E+00
-8.842 0.000E+00
-8.841 0.000E+00
-8.840 0.000E+00
-8.839 0.000E+00
-8.838 0.000E+00
-8.837 0.000E+00
-8.836 0.000E+00
-8.835 0.000E+00
-8.834 0.000E+00
-8.833 0.000E+00
-8.832 0.000E+00
-8.831 0.000E+00
-8.830 0.000E+00
-8.829 0.000E+00
-8.828 0.000E+00
-8.827 0.000E+00
-8.826 0.000E+00
