E(eV) pdos(E) 
-10.000 0.807E-07
-9.999 0.789E-07
-9.998 0.771E-07
-9.997 0.754E-07
-9.996 0.736E-07
-9.995 0.719E-07
-9.994 0.703E-07
-9.993 0.687E-07
-9.992 0.671E-07
-9.991 0.656E-07
-9.990 0.640E-07
-9.989 0.626E-07
-9.988 0.612E-07
-9.987 0.597E-07
-9.986 0.584E-07
-9.985 0.570E-07
-9.984 0.557E-07
-9.983 0.544E-07
-9.982 0.532E-07
-9.981 0.520E-07
-9.980 0.508E-07
-9.979 0.496E-07
-9.978 0.484E-07
-9.977 0.473E-07
-9.976 0.462E-07
-9.975 0.451E-07
-9.974 0.441E-07
-9.973 0.430E-07
-9.972 0.420E-07
-9.971 0.410E-07
-9.970 0.401E-07
-9.969 0.391E-07
-9.968 0.382E-07
-9.967 0.373E-07
-9.966 0.365E-07
-9.965 0.356E-07
-9.964 0.348E-07
-9.963 0.339E-07
-9.962 0.331E-07
-9.961 0.324E-07
-9.960 0.315E-07
-9.959 0.308E-07
-9.958 0.300E-07
-9.957 0.293E-07
-9.956 0.286E-07
-9.955 0.279E-07
-9.954 0.273E-07
-9.953 0.267E-07
-9.952 0.260E-07
-9.951 0.254E-07
-9.950 0.248E-07
-9.949 0.242E-07
-9.948 0.236E-07
-9.947 0.231E-07
-9.946 0.225E-07
-9.945 0.219E-07
-9.944 0.214E-07
-9.943 0.209E-07
-9.942 0.204E-07
-9.941 0.199E-07
-9.940 0.194E-07
-9.939 0.190E-07
-9.938 0.185E-07
-9.937 0.180E-07
-9.936 0.176E-07
-9.935 0.171E-07
-9.934 0.167E-07
-9.933 0.163E-07
-9.932 0.159E-07
-9.931 0.155E-07
-9.930 0.152E-07
-9.929 0.148E-07
-9.928 0.144E-07
-9.927 0.141E-07
-9.926 0.137E-07
-9.925 0.134E-07
-9.924 0.131E-07
-9.923 0.127E-07
-9.922 0.124E-07
-9.921 0.121E-07
-9.920 0.118E-07
-9.919 0.115E-07
-9.918 0.112E-07
-9.917 0.110E-07
-9.916 0.107E-07
-9.915 0.104E-07
-9.914 0.102E-07
-9.913 0.990E-08
-9.912 0.966E-08
-9.911 0.942E-08
-9.910 0.918E-08
-9.909 0.894E-08
-9.908 0.872E-08
-9.907 0.850E-08
-9.906 0.829E-08
-9.905 0.808E-08
-9.904 0.788E-08
-9.903 0.768E-08
-9.902 0.749E-08
-9.901 0.730E-08
-9.900 0.711E-08
-9.899 0.694E-08
-9.898 0.675E-08
-9.897 0.658E-08
-9.896 0.642E-08
-9.895 0.625E-08
-9.894 0.610E-08
-9.893 0.594E-08
-9.892 0.579E-08
-9.891 0.564E-08
-9.890 0.550E-08
-9.889 0.536E-08
-9.888 0.522E-08
-9.887 0.509E-08
-9.886 0.495E-08
-9.885 0.483E-08
-9.884 0.470E-08
-9.883 0.458E-08
-9.882 0.446E-08
-9.881 0.435E-08
-9.880 0.424E-08
-9.879 0.413E-08
-9.878 0.402E-08
-9.877 0.391E-08
-9.876 0.381E-08
-9.875 0.372E-08
-9.874 0.362E-08
-9.873 0.352E-08
-9.872 0.343E-08
-9.871 0.334E-08
-9.870 0.326E-08
-9.869 0.317E-08
-9.868 0.309E-08
-9.867 0.301E-08
-9.866 0.293E-08
-9.865 0.285E-08
-9.864 0.278E-08
-9.863 0.270E-08
-9.862 0.263E-08
-9.861 0.256E-08
-9.860 0.249E-08
-9.859 0.243E-08
-9.858 0.237E-08
-9.857 0.230E-08
-9.856 0.224E-08
-9.855 0.218E-08
-9.854 0.213E-08
-9.853 0.207E-08
-9.852 0.201E-08
-9.851 0.196E-08
-9.850 0.191E-08
-9.849 0.186E-08
-9.848 0.181E-08
-9.847 0.176E-08
-9.846 0.171E-08
-9.845 0.167E-08
-9.844 0.162E-08
-9.843 0.158E-08
-9.842 0.154E-08
-9.841 0.149E-08
-9.840 0.146E-08
-9.839 0.142E-08
-9.838 0.138E-08
-9.837 0.134E-08
-9.836 0.130E-08
-9.835 0.127E-08
-9.834 0.123E-08
-9.833 0.120E-08
-9.832 0.117E-08
-9.831 0.114E-08
-9.830 0.111E-08
-9.829 0.108E-08
-9.828 0.105E-08
-9.827 0.102E-08
-9.826 0.991E-09
-9.825 0.964E-09
-9.824 0.937E-09
-9.823 0.911E-09
-9.822 0.887E-09
-9.821 0.862E-09
-9.820 0.839E-09
-9.819 0.816E-09
-9.818 0.794E-09
-9.817 0.772E-09
-9.816 0.751E-09
-9.815 0.730E-09
-9.814 0.710E-09
-9.813 0.690E-09
-9.812 0.671E-09
-9.811 0.652E-09
-9.810 0.635E-09
-9.809 0.616E-09
-9.808 0.599E-09
-9.807 0.584E-09
-9.806 0.567E-09
-9.805 0.551E-09
-9.804 0.536E-09
-9.803 0.521E-09
-9.802 0.507E-09
-9.801 0.492E-09
-9.800 0.478E-09
-9.799 0.465E-09
-9.798 0.452E-09
-9.797 0.439E-09
-9.796 0.427E-09
-9.795 0.415E-09
-9.794 0.403E-09
-9.793 0.393E-09
-9.792 0.381E-09
-9.791 0.371E-09
-9.790 0.360E-09
-9.789 0.350E-09
-9.788 0.340E-09
-9.787 0.330E-09
-9.786 0.321E-09
-9.785 0.311E-09
-9.784 0.303E-09
-9.783 0.294E-09
-9.782 0.286E-09
-9.781 0.278E-09
-9.780 0.270E-09
-9.779 0.262E-09
-9.778 0.255E-09
-9.777 0.248E-09
-9.776 0.241E-09
-9.775 0.233E-09
-9.774 0.227E-09
-9.773 0.221E-09
-9.772 0.214E-09
-9.771 0.208E-09
-9.770 0.202E-09
-9.769 0.197E-09
-9.768 0.190E-09
-9.767 0.185E-09
-9.766 0.180E-09
-9.765 0.175E-09
-9.764 0.170E-09
-9.763 0.165E-09
-9.762 0.160E-09
-9.761 0.155E-09
-9.760 0.151E-09
-9.759 0.146E-09
-9.758 0.142E-09
-9.757 0.138E-09
-9.756 0.134E-09
-9.755 0.130E-09
-9.754 0.126E-09
-9.753 0.123E-09
-9.752 0.119E-09
-9.751 0.116E-09
-9.750 0.112E-09
-9.749 0.109E-09
-9.748 0.106E-09
-9.747 0.103E-09
-9.746 0.996E-10
-9.745 0.967E-10
-9.744 0.939E-10
-9.743 0.911E-10
-9.742 0.884E-10
-9.741 0.858E-10
-9.740 0.833E-10
-9.739 0.808E-10
-9.738 0.784E-10
-9.737 0.762E-10
-9.736 0.738E-10
-9.735 0.716E-10
-9.734 0.696E-10
-9.733 0.675E-10
-9.732 0.655E-10
-9.731 0.635E-10
-9.730 0.616E-10
-9.729 0.598E-10
-9.728 0.580E-10
-9.727 0.563E-10
-9.726 0.546E-10
-9.725 0.529E-10
-9.724 0.514E-10
-9.723 0.499E-10
-9.722 0.483E-10
-9.721 0.469E-10
-9.720 0.455E-10
-9.719 0.441E-10
-9.718 0.428E-10
-9.717 0.415E-10
-9.716 0.403E-10
-9.715 0.390E-10
-9.714 0.378E-10
-9.713 0.368E-10
-9.712 0.356E-10
-9.711 0.346E-10
-9.710 0.335E-10
-9.709 0.325E-10
-9.708 0.315E-10
-9.707 0.305E-10
-9.706 0.296E-10
-9.705 0.287E-10
-9.704 0.278E-10
-9.703 0.270E-10
-9.702 0.261E-10
-9.701 0.254E-10
-9.700 0.246E-10
-9.699 0.239E-10
-9.698 0.231E-10
-9.697 0.224E-10
-9.696 0.217E-10
-9.695 0.210E-10
-9.694 0.204E-10
-9.693 0.198E-10
-9.692 0.192E-10
-9.691 0.186E-10
-9.690 0.180E-10
-9.689 0.174E-10
-9.688 0.169E-10
-9.687 0.164E-10
-9.686 0.159E-10
-9.685 0.154E-10
-9.684 0.149E-10
-9.683 0.145E-10
-9.682 0.140E-10
-9.681 0.136E-10
-9.680 0.132E-10
-9.679 0.127E-10
-9.678 0.123E-10
-9.677 0.120E-10
-9.676 0.116E-10
-9.675 0.112E-10
-9.674 0.109E-10
-9.673 0.105E-10
-9.672 0.102E-10
-9.671 0.988E-11
-9.670 0.958E-11
-9.669 0.927E-11
-9.668 0.898E-11
-9.667 0.870E-11
-9.666 0.843E-11
-9.665 0.817E-11
-9.664 0.791E-11
-9.663 0.766E-11
-9.662 0.742E-11
-9.661 0.719E-11
-9.660 0.695E-11
-9.659 0.673E-11
-9.658 0.653E-11
-9.657 0.632E-11
-9.656 0.612E-11
-9.655 0.592E-11
-9.654 0.573E-11
-9.653 0.555E-11
-9.652 0.538E-11
-9.651 0.521E-11
-9.650 0.504E-11
-9.649 0.488E-11
-9.648 0.472E-11
-9.647 0.457E-11
-9.646 0.443E-11
-9.645 0.428E-11
-9.644 0.414E-11
-9.643 0.402E-11
-9.642 0.389E-11
-9.641 0.377E-11
-9.640 0.364E-11
-9.639 0.353E-11
-9.638 0.341E-11
-9.637 0.330E-11
-9.636 0.319E-11
-9.635 0.309E-11
-9.634 0.299E-11
-9.633 0.289E-11
-9.632 0.280E-11
-9.631 0.271E-11
-9.630 0.262E-11
-9.629 0.254E-11
-9.628 0.245E-11
-9.627 0.238E-11
-9.626 0.230E-11
-9.625 0.223E-11
-9.624 0.215E-11
-9.623 0.208E-11
-9.622 0.201E-11
-9.621 0.194E-11
-9.620 0.189E-11
-9.619 0.182E-11
-9.618 0.176E-11
-9.617 0.171E-11
-9.616 0.165E-11
-9.615 0.160E-11
-9.614 0.154E-11
-9.613 0.149E-11
-9.612 0.144E-11
-9.611 0.140E-11
-9.610 0.135E-11
-9.609 0.131E-11
-9.608 0.126E-11
-9.607 0.122E-11
-9.606 0.118E-11
-9.605 0.114E-11
-9.604 0.110E-11
-9.603 0.107E-11
-9.602 0.103E-11
-9.601 0.999E-12
-9.600 0.965E-12
-9.599 0.933E-12
-9.598 0.902E-12
-9.597 0.872E-12
-9.596 0.843E-12
-9.595 0.815E-12
-9.594 0.788E-12
-9.593 0.762E-12
-9.592 0.737E-12
-9.591 0.712E-12
-9.590 0.688E-12
-9.589 0.665E-12
-9.588 0.643E-12
-9.587 0.621E-12
-9.586 0.600E-12
-9.585 0.580E-12
-9.584 0.561E-12
-9.583 0.541E-12
-9.582 0.524E-12
-9.581 0.506E-12
-9.580 0.489E-12
-9.579 0.472E-12
-9.578 0.457E-12
-9.577 0.441E-12
-9.576 0.426E-12
-9.575 0.411E-12
-9.574 0.398E-12
-9.573 0.384E-12
-9.572 0.371E-12
-9.571 0.359E-12
-9.570 0.347E-12
-9.569 0.335E-12
-9.568 0.323E-12
-9.567 0.312E-12
-9.566 0.302E-12
-9.565 0.291E-12
-9.564 0.281E-12
-9.563 0.272E-12
-9.562 0.263E-12
-9.561 0.254E-12
-9.560 0.246E-12
-9.559 0.237E-12
-9.558 0.229E-12
-9.557 0.221E-12
-9.556 0.214E-12
-9.555 0.206E-12
-9.554 0.199E-12
-9.553 0.192E-12
-9.552 0.185E-12
-9.551 0.179E-12
-9.550 0.173E-12
-9.549 0.167E-12
-9.548 0.161E-12
-9.547 0.155E-12
-9.546 0.150E-12
-9.545 0.145E-12
-9.544 0.140E-12
-9.543 0.135E-12
-9.542 0.130E-12
-9.541 0.126E-12
-9.540 0.122E-12
-9.539 0.117E-12
-9.538 0.113E-12
-9.537 0.109E-12
-9.536 0.106E-12
-9.535 0.102E-12
-9.534 0.983E-13
-9.533 0.949E-13
-9.532 0.915E-13
-9.531 0.883E-13
-9.530 0.853E-13
-9.529 0.823E-13
-9.528 0.794E-13
-9.527 0.766E-13
-9.526 0.739E-13
-9.525 0.713E-13
-9.524 0.688E-13
-9.523 0.664E-13
-9.522 0.641E-13
-9.521 0.617E-13
-9.520 0.596E-13
-9.519 0.575E-13
-9.518 0.555E-13
-9.517 0.535E-13
-9.516 0.516E-13
-9.515 0.498E-13
-9.514 0.481E-13
-9.513 0.464E-13
-9.512 0.447E-13
-9.511 0.430E-13
-9.510 0.414E-13
-9.509 0.390E-13
-9.508 0.377E-13
-9.507 0.363E-13
-9.506 0.350E-13
-9.505 0.329E-13
-9.504 0.317E-13
-9.503 0.297E-13
-9.502 0.287E-13
-9.501 0.277E-13
-9.500 0.266E-13
-9.499 0.241E-13
-9.498 0.232E-13
-9.497 0.224E-13
-9.496 0.207E-13
-9.495 0.200E-13
-9.494 0.193E-13
-9.493 0.185E-13
-9.492 0.171E-13
-9.491 0.150E-13
-9.490 0.145E-13
-9.489 0.132E-13
-9.488 0.127E-13
-9.487 0.122E-13
-9.486 0.103E-13
-9.485 0.842E-14
-9.484 0.812E-14
-9.483 0.709E-14
-9.482 0.684E-14
-9.481 0.262E-14
-9.480 0.179E-14
-9.479 0.254E-15
-9.478 0.000E+00
-9.477 0.000E+00
-9.476 0.000E+00
-9.475 0.000E+00
-9.474 0.000E+00
-9.473 0.000E+00
-9.472 0.000E+00
-9.471 0.000E+00
-9.470 0.000E+00
-9.469 0.000E+00
-9.468 0.000E+00
-9.467 0.000E+00
-9.466 0.000E+00
-9.465 0.000E+00
-9.464 0.000E+00
-9.463 0.000E+00
-9.462 0.000E+00
-9.461 0.000E+00
-9.460 0.000E+00
-9.459 0.000E+00
-9.458 0.000E+00
-9.457 0.000E+00
-9.456 0.000E+00
-9.455 0.000E+00
-9.454 0.000E+00
-9.453 0.000E+00
-9.452 0.000E+00
-9.451 0.000E+00
-9.450 0.000E+00
-9.449 0.000E+00
-9.448 0.000E+00
-9.447 0.000E+00
-9.446 0.000E+00
-9.445 0.000E+00
-9.444 0.000E+00
-9.443 0.000E+00
-9.442 0.000E+00
-9.441 0.000E+00
-9.440 0.000E+00
-9.439 0.000E+00
-9.438 0.000E+00
-9.437 0.000E+00
-9.436 0.000E+00
-9.435 0.000E+00
-9.434 0.000E+00
-9.433 0.000E+00
-9.432 0.000E+00
-9.431 0.000E+00
-9.430 0.000E+00
-9.429 0.000E+00
-9.428 0.000E+00
-9.427 0.000E+00
-9.426 0.000E+00
-9.425 0.000E+00
-9.424 0.000E+00
-9.423 0.000E+00
-9.422 0.000E+00
-9.421 0.000E+00
-9.420 0.000E+00
-9.419 0.000E+00
-9.418 0.000E+00
-9.417 0.000E+00
-9.416 0.000E+00
-9.415 0.000E+00
-9.414 0.000E+00
-9.413 0.000E+00
-9.412 0.000E+00
-9.411 0.000E+00
-9.410 0.000E+00
-9.409 0.000E+00
-9.408 0.000E+00
-9.407 0.000E+00
-9.406 0.000E+00
-9.405 0.000E+00
-9.404 0.000E+00
-9.403 0.000E+00
-9.402 0.000E+00
-9.401 0.000E+00
-9.400 0.000E+00
-9.399 0.000E+00
-9.398 0.000E+00
-9.397 0.000E+00
-9.396 0.000E+00
-9.395 0.000E+00
-9.394 0.000E+00
-9.393 0.000E+00
-9.392 0.000E+00
-9.391 0.000E+00
-9.390 0.000E+00
-9.389 0.000E+00
-9.388 0.000E+00
-9.387 0.000E+00
-9.386 0.000E+00
-9.385 0.000E+00
-9.384 0.000E+00
-9.383 0.000E+00
-9.382 0.000E+00
-9.381 0.000E+00
-9.380 0.000E+00
-9.379 0.000E+00
-9.378 0.000E+00
-9.377 0.000E+00
-9.376 0.000E+00
-9.375 0.000E+00
-9.374 0.000E+00
-9.373 0.000E+00
-9.372 0.000E+00
-9.371 0.000E+00
-9.370 0.000E+00
-9.369 0.000E+00
-9.368 0.000E+00
-9.367 0.000E+00
-9.366 0.000E+00
-9.365 0.000E+00
-9.364 0.000E+00
-9.363 0.000E+00
-9.362 0.000E+00
-9.361 0.000E+00
-9.360 0.000E+00
-9.359 0.000E+00
-9.358 0.000E+00
-9.357 0.000E+00
-9.356 0.000E+00
-9.355 0.000E+00
-9.354 0.000E+00
-9.353 0.000E+00
-9.352 0.000E+00
-9.351 0.000E+00
-9.350 0.000E+00
-9.349 0.000E+00
-9.348 0.000E+00
-9.347 0.000E+00
-9.346 0.000E+00
-9.345 0.000E+00
-9.344 0.000E+00
-9.343 0.000E+00
-9.342 0.000E+00
-9.341 0.000E+00
-9.340 0.000E+00
-9.339 0.000E+00
-9.338 0.000E+00
-9.337 0.000E+00
-9.336 0.000E+00
-9.335 0.000E+00
-9.334 0.000E+00
-9.333 0.000E+00
-9.332 0.000E+00
-9.331 0.000E+00
-9.330 0.000E+00
-9.329 0.000E+00
-9.328 0.000E+00
-9.327 0.000E+00
-9.326 0.000E+00
-9.325 0.000E+00
-9.324 0.000E+00
-9.323 0.000E+00
-9.322 0.000E+00
-9.321 0.000E+00
-9.320 0.000E+00
-9.319 0.000E+00
-9.318 0.000E+00
-9.317 0.000E+00
-9.316 0.000E+00
-9.315 0.000E+00
-9.314 0.000E+00
-9.313 0.000E+00
-9.312 0.000E+00
-9.311 0.000E+00
-9.310 0.000E+00
-9.309 0.000E+00
-9.308 0.000E+00
-9.307 0.000E+00
-9.306 0.000E+00
-9.305 0.000E+00
-9.304 0.000E+00
-9.303 0.000E+00
-9.302 0.000E+00
-9.301 0.000E+00
-9.300 0.000E+00
-9.299 0.000E+00
-9.298 0.000E+00
-9.297 0.000E+00
-9.296 0.000E+00
-9.295 0.000E+00
-9.294 0.000E+00
-9.293 0.000E+00
-9.292 0.000E+00
-9.291 0.000E+00
-9.290 0.000E+00
-9.289 0.000E+00
-9.288 0.000E+00
-9.287 0.000E+00
-9.286 0.000E+00
-9.285 0.000E+00
-9.284 0.000E+00
-9.283 0.000E+00
-9.282 0.000E+00
-9.281 0.000E+00
-9.280 0.000E+00
-9.279 0.000E+00
-9.278 0.000E+00
-9.277 0.000E+00
-9.276 0.000E+00
-9.275 0.000E+00
-9.274 0.000E+00
-9.273 0.000E+00
-9.272 0.000E+00
-9.271 0.000E+00
-9.270 0.000E+00
-9.269 0.000E+00
-9.268 0.000E+00
-9.267 0.000E+00
-9.266 0.000E+00
-9.265 0.000E+00
-9.264 0.000E+00
-9.263 0.000E+00
-9.262 0.000E+00
-9.261 0.000E+00
-9.260 0.000E+00
-9.259 0.000E+00
-9.258 0.000E+00
-9.257 0.000E+00
-9.256 0.000E+00
-9.255 0.000E+00
-9.254 0.000E+00
-9.253 0.000E+00
-9.252 0.000E+00
-9.251 0.000E+00
-9.250 0.000E+00
-9.249 0.000E+00
-9.248 0.000E+00
-9.247 0.000E+00
-9.246 0.000E+00
-9.245 0.000E+00
-9.244 0.000E+00
-9.243 0.000E+00
-9.242 0.000E+00
-9.241 0.000E+00
-9.240 0.000E+00
-9.239 0.000E+00
-9.238 0.000E+00
-9.237 0.000E+00
-9.236 0.000E+00
-9.235 0.000E+00
-9.234 0.000E+00
-9.233 0.000E+00
-9.232 0.000E+00
-9.231 0.000E+00
-9.230 0.000E+00
-9.229 0.000E+00
-9.228 0.000E+00
-9.227 0.000E+00
-9.226 0.000E+00
-9.225 0.000E+00
-9.224 0.000E+00
-9.223 0.000E+00
-9.222 0.000E+00
-9.221 0.000E+00
-9.220 0.000E+00
-9.219 0.000E+00
-9.218 0.000E+00
-9.217 0.000E+00
-9.216 0.000E+00
-9.215 0.000E+00
-9.214 0.000E+00
-9.213 0.000E+00
-9.212 0.000E+00
-9.211 0.000E+00
-9.210 0.000E+00
-9.209 0.000E+00
-9.208 0.000E+00
-9.207 0.000E+00
-9.206 0.000E+00
-9.205 0.000E+00
-9.204 0.000E+00
-9.203 0.000E+00
-9.202 0.000E+00
-9.201 0.000E+00
-9.200 0.000E+00
-9.199 0.000E+00
-9.198 0.000E+00
-9.197 0.000E+00
-9.196 0.000E+00
-9.195 0.000E+00
-9.194 0.000E+00
-9.193 0.000E+00
-9.192 0.000E+00
-9.191 0.000E+00
-9.190 0.000E+00
-9.189 0.000E+00
-9.188 0.000E+00
-9.187 0.000E+00
-9.186 0.000E+00
-9.185 0.000E+00
-9.184 0.000E+00
-9.183 0.000E+00
-9.182 0.000E+00
-9.181 0.000E+00
-9.180 0.000E+00
-9.179 0.000E+00
-9.178 0.000E+00
-9.177 0.000E+00
-9.176 0.000E+00
-9.175 0.000E+00
-9.174 0.000E+00
-9.173 0.000E+00
-9.172 0.000E+00
-9.171 0.000E+00
-9.170 0.000E+00
-9.169 0.000E+00
-9.168 0.000E+00
-9.167 0.000E+00
-9.166 0.000E+00
-9.165 0.000E+00
-9.164 0.000E+00
-9.163 0.000E+00
-9.162 0.000E+00
-9.161 0.000E+00
-9.160 0.000E+00
-9.159 0.000E+00
-9.158 0.000E+00
-9.157 0.000E+00
-9.156 0.000E+00
-9.155 0.000E+00
-9.154 0.000E+00
-9.153 0.000E+00
-9.152 0.000E+00
-9.151 0.000E+00
-9.150 0.000E+00
-9.149 0.000E+00
-9.148 0.000E+00
-9.147 0.000E+00
-9.146 0.000E+00
-9.145 0.000E+00
-9.144 0.000E+00
-9.143 0.000E+00
-9.142 0.000E+00
-9.141 0.000E+00
-9.140 0.000E+00
-9.139 0.000E+00
-9.138 0.000E+00
-9.137 0.000E+00
-9.136 0.000E+00
-9.135 0.000E+00
-9.134 0.000E+00
-9.133 0.000E+00
-9.132 0.000E+00
-9.131 0.000E+00
-9.130 0.000E+00
-9.129 0.000E+00
-9.128 0.000E+00
-9.127 0.000E+00
-9.126 0.000E+00
-9.125 0.000E+00
-9.124 0.000E+00
-9.123 0.000E+00
-9.122 0.000E+00
-9.121 0.000E+00
-9.120 0.000E+00
-9.119 0.000E+00
-9.118 0.000E+00
-9.117 0.000E+00
-9.116 0.000E+00
-9.115 0.000E+00
-9.114 0.000E+00
-9.113 0.000E+00
-9.112 0.000E+00
-9.111 0.000E+00
-9.110 0.000E+00
-9.109 0.000E+00
-9.108 0.000E+00
-9.107 0.000E+00
-9.106 0.000E+00
-9.105 0.000E+00
-9.104 0.000E+00
-9.103 0.000E+00
-9.102 0.000E+00
-9.101 0.000E+00
-9.100 0.000E+00
-9.099 0.000E+00
-9.098 0.000E+00
-9.097 0.000E+00
-9.096 0.000E+00
-9.095 0.000E+00
-9.094 0.000E+00
-9.093 0.000E+00
-9.092 0.000E+00
-9.091 0.000E+00
-9.090 0.000E+00
-9.089 0.000E+00
-9.088 0.000E+00
-9.087 0.000E+00
-9.086 0.000E+00
-9.085 0.000E+00
-9.084 0.000E+00
-9.083 0.000E+00
-9.082 0.000E+00
-9.081 0.000E+00
-9.080 0.000E+00
-9.079 0.000E+00
-9.078 0.000E+00
-9.077 0.000E+00
-9.076 0.000E+00
-9.075 0.000E+00
-9.074 0.000E+00
-9.073 0.000E+00
-9.072 0.000E+00
-9.071 0.000E+00
-9.070 0.000E+00
-9.069 0.000E+00
-9.068 0.000E+00
-9.067 0.000E+00
-9.066 0.000E+00
-9.065 0.000E+00
-9.064 0.000E+00
-9.063 0.000E+00
-9.062 0.000E+00
-9.061 0.000E+00
-9.060 0.000E+00
-9.059 0.000E+00
-9.058 0.000E+00
-9.057 0.000E+00
-9.056 0.000E+00
-9.055 0.000E+00
-9.054 0.000E+00
-9.053 0.000E+00
-9.052 0.000E+00
-9.051 0.000E+00
-9.050 0.000E+00
-9.049 0.000E+00
-9.048 0.000E+00
-9.047 0.000E+00
-9.046 0.000E+00
-9.045 0.000E+00
-9.044 0.000E+00
-9.043 0.000E+00
-9.042 0.000E+00
-9.041 0.000E+00
-9.040 0.000E+00
-9.039 0.000E+00
-9.038 0.000E+00
-9.037 0.000E+00
-9.036 0.000E+00
-9.035 0.000E+00
-9.034 0.000E+00
-9.033 0.000E+00
-9.032 0.000E+00
-9.031 0.000E+00
-9.030 0.000E+00
-9.029 0.000E+00
-9.028 0.000E+00
-9.027 0.000E+00
-9.026 0.000E+00
-9.025 0.000E+00
-9.024 0.000E+00
-9.023 0.000E+00
-9.022 0.000E+00
-9.021 0.000E+00
-9.020 0.000E+00
-9.019 0.000E+00
-9.018 0.000E+00
-9.017 0.000E+00
-9.016 0.000E+00
-9.015 0.000E+00
-9.014 0.000E+00
-9.013 0.000E+00
-9.012 0.000E+00
-9.011 0.000E+00
-9.010 0.000E+00
-9.009 0.000E+00
-9.008 0.000E+00
-9.007 0.000E+00
-9.006 0.000E+00
-9.005 0.000E+00
-9.004 0.000E+00
-9.003 0.000E+00
-9.002 0.000E+00
-9.001 0.000E+00
-9.000 0.000E+00
-8.999 0.000E+00
-8.998 0.000E+00
-8.997 0.000E+00
-8.996 0.000E+00
-8.995 0.000E+00
-8.994 0.000E+00
-8.993 0.000E+00
-8.992 0.000E+00
-8.991 0.000E+00
-8.990 0.000E+00
-8.989 0.000E+00
-8.988 0.000E+00
-8.987 0.000E+00
-8.986 0.000E+00
-8.985 0.000E+00
-8.984 0.000E+00
-8.983 0.000E+00
-8.982 0.000E+00
-8.981 0.000E+00
-8.980 0.000E+00
-8.979 0.000E+00
-8.978 0.000E+00
-8.977 0.000E+00
-8.976 0.000E+00
-8.975 0.000E+00
-8.974 0.000E+00
-8.973 0.000E+00
-8.972 0.000E+00
-8.971 0.000E+00
-8.970 0.000E+00
-8.969 0.000E+00
-8.968 0.000E+00
-8.967 0.000E+00
-8.966 0.000E+00
-8.965 0.000E+00
-8.964 0.000E+00
-8.963 0.000E+00
-8.962 0.000E+00
-8.961 0.000E+00
-8.960 0.000E+00
-8.959 0.000E+00
-8.958 0.000E+00
-8.957 0.000E+00
-8.956 0.000E+00
-8.955 0.000E+00
-8.954 0.000E+00
-8.953 0.000E+00
-8.952 0.000E+00
-8.951 0.000E+00
-8.950 0.000E+00
-8.949 0.000E+00
-8.948 0.000E+00
-8.947 0.000E+00
-8.946 0.000E+00
-8.945 0.000E+00
-8.944 0.000E+00
-8.943 0.000E+00
-8.942 0.000E+00
-8.941 0.000E+00
-8.940 0.000E+00
-8.939 0.000E+00
-8.938 0.000E+00
-8.937 0.000E+00
-8.936 0.000E+00
-8.935 0.000E+00
-8.934 0.000E+00
-8.933 0.000E+00
-8.932 0.000E+00
-8.931 0.000E+00
-8.930 0.000E+00
-8.929 0.000E+00
-8.928 0.000E+00
-8.927 0.000E+00
-8.926 0.000E+00
-8.925 0.000E+00
-8.924 0.000E+00
-8.923 0.000E+00
-8.922 0.000E+00
-8.921 0.000E+00
-8.920 0.000E+00
-8.919 0.000E+00
-8.918 0.000E+00
-8.917 0.000E+00
-8.916 0.000E+00
-8.915 0.000E+00
-8.914 0.000E+00
-8.913 0.000E+00
-8.912 0.000E+00
-8.911 0.000E+00
-8.910 0.000E+00
-8.909 0.000E+00
-8.908 0.000E+00
-8.907 0.000E+00
-8.906 0.000E+00
-8.905 0.000E+00
-8.904 0.000E+00
-8.903 0.000E+00
-8.902 0.000E+00
-8.901 0.000E+00
-8.900 0.000E+00
-8.899 0.000E+00
-8.898 0.000E+00
-8.897 0.000E+00
-8.896 0.000E+00
-8.895 0.000E+00
-8.894 0.000E+00
-8.893 0.000E+00
-8.892 0.000E+00
-8.891 0.000E+00
-8.890 0.000E+00
-8.889 0.000E+00
-8.888 0.000E+00
-8.887 0.000E+00
-8.886 0.000E+00
-8.885 0.000E+00
-8.884 0.000E+00
-8.883 0.000E+00
-8.882 0.000E+00
-8.881 0.000E+00
-8.880 0.000E+00
-8.879 0.000E+00
-8.878 0.000E+00
-8.877 0.000E+00
-8.876 0.000E+00
-8.875 0.000E+00
-8.874 0.000E+00
-8.873 0.000E+00
-8.872 0.000E+00
-8.871 0.000E+00
-8.870 0.000E+00
-8.869 0.000E+00
-8.868 0.000E+00
-8.867 0.000E+00
-8.866 0.000E+00
-8.865 0.000E+00
-8.864 0.000E+00
-8.863 0.000E+00
-8.862 0.000E+00
-8.861 0.000E+00
-8.860 0.000E+00
-8.859 0.000E+00
-8.858 0.000E+00
-8.857 0.000E+00
-8.856 0.000E+00
-8.855 0.000E+00
-8.854 0.000E+00
-8.853 0.000E+00
-8.852 0.000E+00
-8.851 0.000E+00
-8.850 0.000E+00
-8.849 0.000E+00
-8.848 0.000E+00
-8.847 0.000E+00
-8.846 0.000E+00
-8.845 0.000E+00
-8.844 0.000E+00
-8.843 0.000E+00
-8.842 0.000E+00
-8.841 0.000E+00
-8.840 0.000E+00
-8.839 0.000E+00
-8.838 0.000E+00
-8.837 0.000E+00
-8.836 0.000E+00
-8.835 0.000E+00
-8.834 0.000E+00
-8.833 0.000E+00
-8.832 0.000E+00
-8.831 0.000E+00
-8.830 0.000E+00
-8.829 0.000E+00
-8.828 0.000E+00
-8.827 0.000E+00
-8.826 0.000E+00
