E(eV) dos(E) pdos(E)
-10.000 0.266E-05 0.266E-05
-9.999 0.273E-05 0.273E-05
-9.998 0.281E-05 0.281E-05
-9.997 0.289E-05 0.289E-05
-9.996 0.297E-05 0.297E-05
-9.995 0.306E-05 0.306E-05
-9.994 0.314E-05 0.314E-05
-9.993 0.323E-05 0.323E-05
-9.992 0.332E-05 0.332E-05
-9.991 0.342E-05 0.342E-05
-9.990 0.351E-05 0.351E-05
-9.989 0.361E-05 0.361E-05
-9.988 0.371E-05 0.371E-05
-9.987 0.382E-05 0.382E-05
-9.986 0.393E-05 0.392E-05
-9.985 0.403E-05 0.403E-05
-9.984 0.415E-05 0.415E-05
-9.983 0.426E-05 0.426E-05
-9.982 0.438E-05 0.438E-05
-9.981 0.451E-05 0.450E-05
-9.980 0.463E-05 0.463E-05
-9.979 0.476E-05 0.476E-05
-9.978 0.489E-05 0.489E-05
-9.977 0.503E-05 0.503E-05
-9.976 0.517E-05 0.517E-05
-9.975 0.531E-05 0.531E-05
-9.974 0.546E-05 0.546E-05
-9.973 0.561E-05 0.561E-05
-9.972 0.576E-05 0.576E-05
-9.971 0.592E-05 0.592E-05
-9.970 0.609E-05 0.608E-05
-9.969 0.626E-05 0.625E-05
-9.968 0.643E-05 0.643E-05
-9.967 0.661E-05 0.660E-05
-9.966 0.679E-05 0.678E-05
-9.965 0.697E-05 0.697E-05
-9.964 0.717E-05 0.716E-05
-9.963 0.736E-05 0.736E-05
-9.962 0.756E-05 0.756E-05
-9.961 0.777E-05 0.777E-05
-9.960 0.798E-05 0.798E-05
-9.959 0.820E-05 0.820E-05
-9.958 0.843E-05 0.842E-05
-9.957 0.866E-05 0.865E-05
-9.956 0.889E-05 0.889E-05
-9.955 0.913E-05 0.913E-05
-9.954 0.938E-05 0.938E-05
-9.953 0.964E-05 0.963E-05
-9.952 0.990E-05 0.990E-05
-9.951 0.102E-04 0.102E-04
-9.950 0.104E-04 0.104E-04
-9.949 0.107E-04 0.107E-04
-9.948 0.110E-04 0.110E-04
-9.947 0.113E-04 0.113E-04
-9.946 0.116E-04 0.116E-04
-9.945 0.119E-04 0.119E-04
-9.944 0.123E-04 0.123E-04
-9.943 0.126E-04 0.126E-04
-9.942 0.129E-04 0.129E-04
-9.941 0.133E-04 0.133E-04
-9.940 0.136E-04 0.136E-04
-9.939 0.140E-04 0.140E-04
-9.938 0.144E-04 0.144E-04
-9.937 0.148E-04 0.147E-04
-9.936 0.151E-04 0.151E-04
-9.935 0.156E-04 0.155E-04
-9.934 0.160E-04 0.160E-04
-9.933 0.164E-04 0.164E-04
-9.932 0.168E-04 0.168E-04
-9.931 0.173E-04 0.173E-04
-9.930 0.177E-04 0.177E-04
-9.929 0.182E-04 0.182E-04
-9.928 0.187E-04 0.187E-04
-9.927 0.192E-04 0.192E-04
-9.926 0.197E-04 0.197E-04
-9.925 0.202E-04 0.202E-04
-9.924 0.208E-04 0.207E-04
-9.923 0.213E-04 0.213E-04
-9.922 0.219E-04 0.219E-04
-9.921 0.224E-04 0.224E-04
-9.920 0.230E-04 0.230E-04
-9.919 0.236E-04 0.236E-04
-9.918 0.243E-04 0.243E-04
-9.917 0.249E-04 0.249E-04
-9.916 0.256E-04 0.255E-04
-9.915 0.262E-04 0.262E-04
-9.914 0.269E-04 0.269E-04
-9.913 0.276E-04 0.276E-04
-9.912 0.283E-04 0.283E-04
-9.911 0.291E-04 0.291E-04
-9.910 0.298E-04 0.298E-04
-9.909 0.306E-04 0.306E-04
-9.908 0.314E-04 0.314E-04
-9.907 0.322E-04 0.322E-04
-9.906 0.331E-04 0.330E-04
-9.905 0.339E-04 0.339E-04
-9.904 0.348E-04 0.348E-04
-9.903 0.357E-04 0.357E-04
-9.902 0.366E-04 0.366E-04
-9.901 0.376E-04 0.376E-04
-9.900 0.385E-04 0.385E-04
-9.899 0.395E-04 0.395E-04
-9.898 0.406E-04 0.405E-04
-9.897 0.416E-04 0.416E-04
-9.896 0.427E-04 0.427E-04
-9.895 0.438E-04 0.438E-04
-9.894 0.449E-04 0.449E-04
-9.893 0.460E-04 0.460E-04
-9.892 0.472E-04 0.472E-04
-9.891 0.484E-04 0.484E-04
-9.890 0.497E-04 0.497E-04
-9.889 0.509E-04 0.509E-04
-9.888 0.522E-04 0.522E-04
-9.887 0.536E-04 0.536E-04
-9.886 0.549E-04 0.549E-04
-9.885 0.563E-04 0.563E-04
-9.884 0.578E-04 0.577E-04
-9.883 0.592E-04 0.592E-04
-9.882 0.607E-04 0.607E-04
-9.881 0.623E-04 0.623E-04
-9.880 0.639E-04 0.638E-04
-9.879 0.655E-04 0.654E-04
-9.878 0.671E-04 0.671E-04
-9.877 0.688E-04 0.688E-04
-9.876 0.706E-04 0.705E-04
-9.875 0.723E-04 0.723E-04
-9.874 0.742E-04 0.741E-04
-9.873 0.760E-04 0.760E-04
-9.872 0.779E-04 0.779E-04
-9.871 0.799E-04 0.799E-04
-9.870 0.819E-04 0.819E-04
-9.869 0.839E-04 0.839E-04
-9.868 0.860E-04 0.860E-04
-9.867 0.882E-04 0.882E-04
-9.866 0.904E-04 0.904E-04
-9.865 0.926E-04 0.926E-04
-9.864 0.950E-04 0.949E-04
-9.863 0.973E-04 0.973E-04
-9.862 0.997E-04 0.997E-04
-9.861 0.102E-03 0.102E-03
-9.860 0.105E-03 0.105E-03
-9.859 0.107E-03 0.107E-03
-9.858 0.110E-03 0.110E-03
-9.857 0.113E-03 0.113E-03
-9.856 0.116E-03 0.115E-03
-9.855 0.118E-03 0.118E-03
-9.854 0.121E-03 0.121E-03
-9.853 0.124E-03 0.124E-03
-9.852 0.127E-03 0.127E-03
-9.851 0.130E-03 0.130E-03
-9.850 0.134E-03 0.134E-03
-9.849 0.137E-03 0.137E-03
-9.848 0.140E-03 0.140E-03
-9.847 0.144E-03 0.144E-03
-9.846 0.147E-03 0.147E-03
-9.845 0.151E-03 0.151E-03
-9.844 0.155E-03 0.154E-03
-9.843 0.158E-03 0.158E-03
-9.842 0.162E-03 0.162E-03
-9.841 0.166E-03 0.166E-03
-9.840 0.170E-03 0.170E-03
-9.839 0.174E-03 0.174E-03
-9.838 0.178E-03 0.178E-03
-9.837 0.183E-03 0.183E-03
-9.836 0.187E-03 0.187E-03
-9.835 0.192E-03 0.192E-03
-9.834 0.196E-03 0.196E-03
-9.833 0.201E-03 0.201E-03
-9.832 0.206E-03 0.206E-03
-9.831 0.211E-03 0.211E-03
-9.830 0.216E-03 0.216E-03
-9.829 0.221E-03 0.221E-03
-9.828 0.226E-03 0.226E-03
-9.827 0.232E-03 0.232E-03
-9.826 0.237E-03 0.237E-03
-9.825 0.243E-03 0.243E-03
-9.824 0.249E-03 0.249E-03
-9.823 0.255E-03 0.255E-03
-9.822 0.261E-03 0.261E-03
-9.821 0.267E-03 0.267E-03
-9.820 0.273E-03 0.273E-03
-9.819 0.280E-03 0.280E-03
-9.818 0.287E-03 0.287E-03
-9.817 0.293E-03 0.293E-03
-9.816 0.300E-03 0.300E-03
-9.815 0.307E-03 0.307E-03
-9.814 0.315E-03 0.315E-03
-9.813 0.322E-03 0.322E-03
-9.812 0.330E-03 0.330E-03
-9.811 0.338E-03 0.337E-03
-9.810 0.345E-03 0.345E-03
-9.809 0.354E-03 0.353E-03
-9.808 0.362E-03 0.362E-03
-9.807 0.370E-03 0.370E-03
-9.806 0.379E-03 0.379E-03
-9.805 0.388E-03 0.388E-03
-9.804 0.397E-03 0.397E-03
-9.803 0.406E-03 0.406E-03
-9.802 0.416E-03 0.416E-03
-9.801 0.425E-03 0.425E-03
-9.800 0.435E-03 0.435E-03
-9.799 0.445E-03 0.445E-03
-9.798 0.456E-03 0.456E-03
-9.797 0.466E-03 0.466E-03
-9.796 0.477E-03 0.477E-03
-9.795 0.488E-03 0.488E-03
-9.794 0.499E-03 0.499E-03
-9.793 0.511E-03 0.511E-03
-9.792 0.523E-03 0.523E-03
-9.791 0.535E-03 0.535E-03
-9.790 0.547E-03 0.547E-03
-9.789 0.560E-03 0.560E-03
-9.788 0.573E-03 0.572E-03
-9.787 0.586E-03 0.585E-03
-9.786 0.599E-03 0.599E-03
-9.785 0.613E-03 0.613E-03
-9.784 0.627E-03 0.627E-03
-9.783 0.641E-03 0.641E-03
-9.782 0.656E-03 0.656E-03
-9.781 0.671E-03 0.670E-03
-9.780 0.686E-03 0.686E-03
-9.779 0.702E-03 0.701E-03
-9.778 0.718E-03 0.717E-03
-9.777 0.734E-03 0.734E-03
-9.776 0.750E-03 0.750E-03
-9.775 0.767E-03 0.767E-03
-9.774 0.785E-03 0.784E-03
-9.773 0.802E-03 0.802E-03
-9.772 0.821E-03 0.820E-03
-9.771 0.839E-03 0.839E-03
-9.770 0.858E-03 0.858E-03
-9.769 0.877E-03 0.877E-03
-9.768 0.897E-03 0.897E-03
-9.767 0.917E-03 0.917E-03
-9.766 0.938E-03 0.937E-03
-9.765 0.959E-03 0.958E-03
-9.764 0.980E-03 0.980E-03
-9.763 0.100E-02 0.100E-02
-9.762 0.102E-02 0.102E-02
-9.761 0.105E-02 0.105E-02
-9.760 0.107E-02 0.107E-02
-9.759 0.109E-02 0.109E-02
-9.758 0.112E-02 0.112E-02
-9.757 0.114E-02 0.114E-02
-9.756 0.117E-02 0.117E-02
-9.755 0.119E-02 0.119E-02
-9.754 0.122E-02 0.122E-02
-9.753 0.125E-02 0.125E-02
-9.752 0.127E-02 0.127E-02
-9.751 0.130E-02 0.130E-02
-9.750 0.133E-02 0.133E-02
-9.749 0.136E-02 0.136E-02
-9.748 0.139E-02 0.139E-02
-9.747 0.142E-02 0.142E-02
-9.746 0.145E-02 0.145E-02
-9.745 0.148E-02 0.148E-02
-9.744 0.152E-02 0.152E-02
-9.743 0.155E-02 0.155E-02
-9.742 0.158E-02 0.158E-02
-9.741 0.162E-02 0.162E-02
-9.740 0.165E-02 0.165E-02
-9.739 0.169E-02 0.169E-02
-9.738 0.173E-02 0.172E-02
-9.737 0.176E-02 0.176E-02
-9.736 0.180E-02 0.180E-02
-9.735 0.184E-02 0.184E-02
-9.734 0.188E-02 0.188E-02
-9.733 0.192E-02 0.192E-02
-9.732 0.196E-02 0.196E-02
-9.731 0.200E-02 0.200E-02
-9.730 0.205E-02 0.205E-02
-9.729 0.209E-02 0.209E-02
-9.728 0.214E-02 0.213E-02
-9.727 0.218E-02 0.218E-02
-9.726 0.223E-02 0.223E-02
-9.725 0.227E-02 0.227E-02
-9.724 0.232E-02 0.232E-02
-9.723 0.237E-02 0.237E-02
-9.722 0.242E-02 0.242E-02
-9.721 0.247E-02 0.247E-02
-9.720 0.253E-02 0.253E-02
-9.719 0.258E-02 0.258E-02
-9.718 0.264E-02 0.263E-02
-9.717 0.269E-02 0.269E-02
-9.716 0.275E-02 0.275E-02
-9.715 0.281E-02 0.280E-02
-9.714 0.286E-02 0.286E-02
-9.713 0.293E-02 0.292E-02
-9.712 0.299E-02 0.299E-02
-9.711 0.305E-02 0.305E-02
-9.710 0.311E-02 0.311E-02
-9.709 0.318E-02 0.318E-02
-9.708 0.324E-02 0.324E-02
-9.707 0.331E-02 0.331E-02
-9.706 0.338E-02 0.338E-02
-9.705 0.345E-02 0.345E-02
-9.704 0.352E-02 0.352E-02
-9.703 0.360E-02 0.360E-02
-9.702 0.367E-02 0.367E-02
-9.701 0.375E-02 0.375E-02
-9.700 0.383E-02 0.382E-02
-9.699 0.390E-02 0.390E-02
-9.698 0.398E-02 0.398E-02
-9.697 0.407E-02 0.407E-02
-9.696 0.415E-02 0.415E-02
-9.695 0.424E-02 0.423E-02
-9.694 0.432E-02 0.432E-02
-9.693 0.441E-02 0.441E-02
-9.692 0.450E-02 0.450E-02
-9.691 0.459E-02 0.459E-02
-9.690 0.469E-02 0.469E-02
-9.689 0.478E-02 0.478E-02
-9.688 0.488E-02 0.488E-02
-9.687 0.498E-02 0.498E-02
-9.686 0.508E-02 0.508E-02
-9.685 0.519E-02 0.518E-02
-9.684 0.529E-02 0.529E-02
-9.683 0.540E-02 0.540E-02
-9.682 0.551E-02 0.550E-02
-9.681 0.562E-02 0.562E-02
-9.680 0.573E-02 0.573E-02
-9.679 0.585E-02 0.585E-02
-9.678 0.596E-02 0.596E-02
-9.677 0.608E-02 0.608E-02
-9.676 0.621E-02 0.620E-02
-9.675 0.633E-02 0.633E-02
-9.674 0.646E-02 0.646E-02
-9.673 0.659E-02 0.658E-02
-9.672 0.672E-02 0.672E-02
-9.671 0.685E-02 0.685E-02
-9.670 0.699E-02 0.699E-02
-9.669 0.713E-02 0.713E-02
-9.668 0.727E-02 0.727E-02
-9.667 0.741E-02 0.741E-02
-9.666 0.756E-02 0.756E-02
-9.665 0.771E-02 0.771E-02
-9.664 0.786E-02 0.786E-02
-9.663 0.802E-02 0.802E-02
-9.662 0.818E-02 0.817E-02
-9.661 0.834E-02 0.833E-02
-9.660 0.850E-02 0.850E-02
-9.659 0.867E-02 0.867E-02
-9.658 0.884E-02 0.884E-02
-9.657 0.901E-02 0.901E-02
-9.656 0.919E-02 0.918E-02
-9.655 0.937E-02 0.936E-02
-9.654 0.955E-02 0.955E-02
-9.653 0.974E-02 0.973E-02
-9.652 0.993E-02 0.992E-02
-9.651 0.101E-01 0.101E-01
-9.650 0.103E-01 0.103E-01
-9.649 0.105E-01 0.105E-01
-9.648 0.107E-01 0.107E-01
-9.647 0.109E-01 0.109E-01
-9.646 0.111E-01 0.111E-01
-9.645 0.114E-01 0.113E-01
-9.644 0.116E-01 0.116E-01
-9.643 0.118E-01 0.118E-01
-9.642 0.120E-01 0.120E-01
-9.641 0.122E-01 0.122E-01
-9.640 0.125E-01 0.125E-01
-9.639 0.127E-01 0.127E-01
-9.638 0.130E-01 0.130E-01
-9.637 0.132E-01 0.132E-01
-9.636 0.135E-01 0.135E-01
-9.635 0.137E-01 0.137E-01
-9.634 0.140E-01 0.140E-01
-9.633 0.142E-01 0.142E-01
-9.632 0.145E-01 0.145E-01
-9.631 0.148E-01 0.148E-01
-9.630 0.151E-01 0.151E-01
-9.629 0.154E-01 0.153E-01
-9.628 0.156E-01 0.156E-01
-9.627 0.159E-01 0.159E-01
-9.626 0.162E-01 0.162E-01
-9.625 0.165E-01 0.165E-01
-9.624 0.169E-01 0.168E-01
-9.623 0.172E-01 0.172E-01
-9.622 0.175E-01 0.175E-01
-9.621 0.178E-01 0.178E-01
-9.620 0.181E-01 0.181E-01
-9.619 0.185E-01 0.185E-01
-9.618 0.188E-01 0.188E-01
-9.617 0.192E-01 0.192E-01
-9.616 0.195E-01 0.195E-01
-9.615 0.199E-01 0.199E-01
-9.614 0.203E-01 0.203E-01
-9.613 0.206E-01 0.206E-01
-9.612 0.210E-01 0.210E-01
-9.611 0.214E-01 0.214E-01
-9.610 0.218E-01 0.218E-01
-9.609 0.222E-01 0.222E-01
-9.608 0.226E-01 0.226E-01
-9.607 0.230E-01 0.230E-01
-9.606 0.234E-01 0.234E-01
-9.605 0.239E-01 0.239E-01
-9.604 0.243E-01 0.243E-01
-9.603 0.247E-01 0.247E-01
-9.602 0.252E-01 0.252E-01
-9.601 0.256E-01 0.256E-01
-9.600 0.261E-01 0.261E-01
-9.599 0.266E-01 0.266E-01
-9.598 0.271E-01 0.271E-01
-9.597 0.275E-01 0.275E-01
-9.596 0.280E-01 0.280E-01
-9.595 0.285E-01 0.285E-01
-9.594 0.291E-01 0.291E-01
-9.593 0.296E-01 0.296E-01
-9.592 0.301E-01 0.301E-01
-9.591 0.307E-01 0.306E-01
-9.590 0.312E-01 0.312E-01
-9.589 0.318E-01 0.317E-01
-9.588 0.323E-01 0.323E-01
-9.587 0.329E-01 0.329E-01
-9.586 0.335E-01 0.335E-01
-9.585 0.341E-01 0.341E-01
-9.584 0.347E-01 0.347E-01
-9.583 0.353E-01 0.353E-01
-9.582 0.359E-01 0.359E-01
-9.581 0.365E-01 0.365E-01
-9.580 0.372E-01 0.372E-01
-9.579 0.378E-01 0.378E-01
-9.578 0.385E-01 0.385E-01
-9.577 0.392E-01 0.392E-01
-9.576 0.399E-01 0.398E-01
-9.575 0.406E-01 0.405E-01
-9.574 0.413E-01 0.413E-01
-9.573 0.420E-01 0.420E-01
-9.572 0.427E-01 0.427E-01
-9.571 0.435E-01 0.434E-01
-9.570 0.442E-01 0.442E-01
-9.569 0.450E-01 0.450E-01
-9.568 0.458E-01 0.457E-01
-9.567 0.465E-01 0.465E-01
-9.566 0.473E-01 0.473E-01
-9.565 0.482E-01 0.481E-01
-9.564 0.490E-01 0.490E-01
-9.563 0.498E-01 0.498E-01
-9.562 0.507E-01 0.507E-01
-9.561 0.515E-01 0.515E-01
-9.560 0.524E-01 0.524E-01
-9.559 0.533E-01 0.533E-01
-9.558 0.542E-01 0.542E-01
-9.557 0.552E-01 0.551E-01
-9.556 0.561E-01 0.561E-01
-9.555 0.570E-01 0.570E-01
-9.554 0.580E-01 0.580E-01
-9.553 0.590E-01 0.590E-01
-9.552 0.600E-01 0.600E-01
-9.551 0.610E-01 0.610E-01
-9.550 0.620E-01 0.620E-01
-9.549 0.631E-01 0.630E-01
-9.548 0.641E-01 0.641E-01
-9.547 0.652E-01 0.652E-01
-9.546 0.663E-01 0.663E-01
-9.545 0.674E-01 0.674E-01
-9.544 0.685E-01 0.685E-01
-9.543 0.696E-01 0.696E-01
-9.542 0.708E-01 0.708E-01
-9.541 0.720E-01 0.720E-01
-9.540 0.732E-01 0.731E-01
-9.539 0.744E-01 0.744E-01
-9.538 0.756E-01 0.756E-01
-9.537 0.768E-01 0.768E-01
-9.536 0.781E-01 0.781E-01
-9.535 0.794E-01 0.794E-01
-9.534 0.807E-01 0.807E-01
-9.533 0.820E-01 0.820E-01
-9.532 0.834E-01 0.833E-01
-9.531 0.847E-01 0.847E-01
-9.530 0.861E-01 0.861E-01
-9.529 0.875E-01 0.875E-01
-9.528 0.889E-01 0.889E-01
-9.527 0.904E-01 0.903E-01
-9.526 0.918E-01 0.918E-01
-9.525 0.933E-01 0.933E-01
-9.524 0.948E-01 0.948E-01
-9.523 0.964E-01 0.963E-01
-9.522 0.979E-01 0.979E-01
-9.521 0.995E-01 0.994E-01
-9.520 0.101E+00 0.101E+00
-9.519 0.103E+00 0.103E+00
-9.518 0.104E+00 0.104E+00
-9.517 0.106E+00 0.106E+00
-9.516 0.108E+00 0.108E+00
-9.515 0.109E+00 0.109E+00
-9.514 0.111E+00 0.111E+00
-9.513 0.113E+00 0.113E+00
-9.512 0.115E+00 0.115E+00
-9.511 0.117E+00 0.116E+00
-9.510 0.118E+00 0.118E+00
-9.509 0.120E+00 0.120E+00
-9.508 0.122E+00 0.122E+00
-9.507 0.124E+00 0.124E+00
-9.506 0.126E+00 0.126E+00
-9.505 0.128E+00 0.128E+00
-9.504 0.130E+00 0.130E+00
-9.503 0.132E+00 0.132E+00
-9.502 0.134E+00 0.134E+00
-9.501 0.136E+00 0.136E+00
-9.500 0.138E+00 0.138E+00
-9.499 0.140E+00 0.140E+00
-9.498 0.143E+00 0.142E+00
-9.497 0.145E+00 0.145E+00
-9.496 0.147E+00 0.147E+00
-9.495 0.149E+00 0.149E+00
-9.494 0.152E+00 0.151E+00
-9.493 0.154E+00 0.154E+00
-9.492 0.156E+00 0.156E+00
-9.491 0.159E+00 0.159E+00
-9.490 0.161E+00 0.161E+00
-9.489 0.163E+00 0.163E+00
-9.488 0.166E+00 0.166E+00
-9.487 0.168E+00 0.168E+00
-9.486 0.171E+00 0.171E+00
-9.485 0.174E+00 0.174E+00
-9.484 0.176E+00 0.176E+00
-9.483 0.179E+00 0.179E+00
-9.482 0.182E+00 0.182E+00
-9.481 0.184E+00 0.184E+00
-9.480 0.187E+00 0.187E+00
-9.479 0.190E+00 0.190E+00
-9.478 0.193E+00 0.193E+00
-9.477 0.196E+00 0.196E+00
-9.476 0.199E+00 0.198E+00
-9.475 0.201E+00 0.201E+00
-9.474 0.204E+00 0.204E+00
-9.473 0.207E+00 0.207E+00
-9.472 0.211E+00 0.210E+00
-9.471 0.214E+00 0.214E+00
-9.470 0.217E+00 0.217E+00
-9.469 0.220E+00 0.220E+00
-9.468 0.223E+00 0.223E+00
-9.467 0.227E+00 0.226E+00
-9.466 0.230E+00 0.230E+00
-9.465 0.233E+00 0.233E+00
-9.464 0.237E+00 0.237E+00
-9.463 0.240E+00 0.240E+00
-9.462 0.244E+00 0.243E+00
-9.461 0.247E+00 0.247E+00
-9.460 0.251E+00 0.251E+00
-9.459 0.254E+00 0.254E+00
-9.458 0.258E+00 0.258E+00
-9.457 0.262E+00 0.262E+00
-9.456 0.265E+00 0.265E+00
-9.455 0.269E+00 0.269E+00
-9.454 0.273E+00 0.273E+00
-9.453 0.277E+00 0.277E+00
-9.452 0.281E+00 0.281E+00
-9.451 0.285E+00 0.285E+00
-9.450 0.289E+00 0.289E+00
-9.449 0.293E+00 0.293E+00
-9.448 0.297E+00 0.297E+00
-9.447 0.301E+00 0.301E+00
-9.446 0.306E+00 0.306E+00
-9.445 0.310E+00 0.310E+00
-9.444 0.314E+00 0.314E+00
-9.443 0.319E+00 0.319E+00
-9.442 0.323E+00 0.323E+00
-9.441 0.328E+00 0.328E+00
-9.440 0.332E+00 0.332E+00
-9.439 0.337E+00 0.337E+00
-9.438 0.342E+00 0.342E+00
-9.437 0.346E+00 0.346E+00
-9.436 0.351E+00 0.351E+00
-9.435 0.356E+00 0.356E+00
-9.434 0.361E+00 0.361E+00
-9.433 0.366E+00 0.366E+00
-9.432 0.371E+00 0.371E+00
-9.431 0.376E+00 0.376E+00
-9.430 0.381E+00 0.381E+00
-9.429 0.386E+00 0.386E+00
-9.428 0.392E+00 0.392E+00
-9.427 0.397E+00 0.397E+00
-9.426 0.403E+00 0.402E+00
-9.425 0.408E+00 0.408E+00
-9.424 0.414E+00 0.413E+00
-9.423 0.419E+00 0.419E+00
-9.422 0.425E+00 0.425E+00
-9.421 0.430E+00 0.430E+00
-9.420 0.436E+00 0.436E+00
-9.419 0.442E+00 0.442E+00
-9.418 0.448E+00 0.448E+00
-9.417 0.454E+00 0.454E+00
-9.416 0.460E+00 0.460E+00
-9.415 0.466E+00 0.466E+00
-9.414 0.472E+00 0.472E+00
-9.413 0.479E+00 0.479E+00
-9.412 0.485E+00 0.485E+00
-9.411 0.491E+00 0.491E+00
-9.410 0.498E+00 0.498E+00
-9.409 0.504E+00 0.504E+00
-9.408 0.511E+00 0.511E+00
-9.407 0.518E+00 0.518E+00
-9.406 0.525E+00 0.524E+00
-9.405 0.531E+00 0.531E+00
-9.404 0.538E+00 0.538E+00
-9.403 0.545E+00 0.545E+00
-9.402 0.552E+00 0.552E+00
-9.401 0.560E+00 0.559E+00
-9.400 0.567E+00 0.567E+00
-9.399 0.574E+00 0.574E+00
-9.398 0.582E+00 0.581E+00
-9.397 0.589E+00 0.589E+00
-9.396 0.597E+00 0.596E+00
-9.395 0.604E+00 0.604E+00
-9.394 0.612E+00 0.612E+00
-9.393 0.620E+00 0.620E+00
-9.392 0.628E+00 0.627E+00
-9.391 0.636E+00 0.635E+00
-9.390 0.644E+00 0.643E+00
-9.389 0.652E+00 0.652E+00
-9.388 0.660E+00 0.660E+00
-9.387 0.668E+00 0.668E+00
-9.386 0.677E+00 0.676E+00
-9.385 0.685E+00 0.685E+00
-9.384 0.694E+00 0.694E+00
-9.383 0.702E+00 0.702E+00
-9.382 0.711E+00 0.711E+00
-9.381 0.720E+00 0.720E+00
-9.380 0.729E+00 0.729E+00
-9.379 0.738E+00 0.738E+00
-9.378 0.747E+00 0.747E+00
-9.377 0.756E+00 0.756E+00
-9.376 0.766E+00 0.765E+00
-9.375 0.775E+00 0.775E+00
-9.374 0.785E+00 0.784E+00
-9.373 0.794E+00 0.794E+00
-9.372 0.804E+00 0.804E+00
-9.371 0.814E+00 0.813E+00
-9.370 0.823E+00 0.823E+00
-9.369 0.833E+00 0.833E+00
-9.368 0.844E+00 0.843E+00
-9.367 0.854E+00 0.854E+00
-9.366 0.864E+00 0.864E+00
-9.365 0.874E+00 0.874E+00
-9.364 0.885E+00 0.885E+00
-9.363 0.895E+00 0.895E+00
-9.362 0.906E+00 0.906E+00
-9.361 0.917E+00 0.917E+00
-9.360 0.928E+00 0.928E+00
-9.359 0.939E+00 0.939E+00
-9.358 0.950E+00 0.950E+00
-9.357 0.961E+00 0.961E+00
-9.356 0.973E+00 0.972E+00
-9.355 0.984E+00 0.984E+00
-9.354 0.996E+00 0.995E+00
-9.353 0.101E+01 0.101E+01
-9.352 0.102E+01 0.102E+01
-9.351 0.103E+01 0.103E+01
-9.350 0.104E+01 0.104E+01
-9.349 0.105E+01 0.105E+01
-9.348 0.107E+01 0.107E+01
-9.347 0.108E+01 0.108E+01
-9.346 0.109E+01 0.109E+01
-9.345 0.110E+01 0.110E+01
-9.344 0.112E+01 0.112E+01
-9.343 0.113E+01 0.113E+01
-9.342 0.114E+01 0.114E+01
-9.341 0.116E+01 0.116E+01
-9.340 0.117E+01 0.117E+01
-9.339 0.118E+01 0.118E+01
-9.338 0.120E+01 0.120E+01
-9.337 0.121E+01 0.121E+01
-9.336 0.122E+01 0.122E+01
-9.335 0.124E+01 0.124E+01
-9.334 0.125E+01 0.125E+01
-9.333 0.126E+01 0.126E+01
-9.332 0.128E+01 0.128E+01
-9.331 0.129E+01 0.129E+01
-9.330 0.131E+01 0.131E+01
-9.329 0.132E+01 0.132E+01
-9.328 0.134E+01 0.134E+01
-9.327 0.135E+01 0.135E+01
-9.326 0.137E+01 0.137E+01
-9.325 0.138E+01 0.138E+01
-9.324 0.140E+01 0.140E+01
-9.323 0.141E+01 0.141E+01
-9.322 0.143E+01 0.143E+01
-9.321 0.144E+01 0.144E+01
-9.320 0.146E+01 0.146E+01
-9.319 0.147E+01 0.147E+01
-9.318 0.149E+01 0.149E+01
-9.317 0.151E+01 0.151E+01
-9.316 0.152E+01 0.152E+01
-9.315 0.154E+01 0.154E+01
-9.314 0.155E+01 0.155E+01
-9.313 0.157E+01 0.157E+01
-9.312 0.159E+01 0.159E+01
-9.311 0.161E+01 0.160E+01
-9.310 0.162E+01 0.162E+01
-9.309 0.164E+01 0.164E+01
-9.308 0.166E+01 0.166E+01
-9.307 0.167E+01 0.167E+01
-9.306 0.169E+01 0.169E+01
-9.305 0.171E+01 0.171E+01
-9.304 0.173E+01 0.173E+01
-9.303 0.174E+01 0.174E+01
-9.302 0.176E+01 0.176E+01
-9.301 0.178E+01 0.178E+01
-9.300 0.180E+01 0.180E+01
-9.299 0.182E+01 0.182E+01
-9.298 0.184E+01 0.184E+01
-9.297 0.186E+01 0.186E+01
-9.296 0.187E+01 0.187E+01
-9.295 0.189E+01 0.189E+01
-9.294 0.191E+01 0.191E+01
-9.293 0.193E+01 0.193E+01
-9.292 0.195E+01 0.195E+01
-9.291 0.197E+01 0.197E+01
-9.290 0.199E+01 0.199E+01
-9.289 0.201E+01 0.201E+01
-9.288 0.203E+01 0.203E+01
-9.287 0.205E+01 0.205E+01
-9.286 0.207E+01 0.207E+01
-9.285 0.209E+01 0.209E+01
-9.284 0.211E+01 0.211E+01
-9.283 0.214E+01 0.213E+01
-9.282 0.216E+01 0.216E+01
-9.281 0.218E+01 0.218E+01
-9.280 0.220E+01 0.220E+01
-9.279 0.222E+01 0.222E+01
-9.278 0.224E+01 0.224E+01
-9.277 0.226E+01 0.226E+01
-9.276 0.229E+01 0.229E+01
-9.275 0.231E+01 0.231E+01
-9.274 0.233E+01 0.233E+01
-9.273 0.235E+01 0.235E+01
-9.272 0.238E+01 0.238E+01
-9.271 0.240E+01 0.240E+01
-9.270 0.242E+01 0.242E+01
-9.269 0.244E+01 0.244E+01
-9.268 0.247E+01 0.247E+01
-9.267 0.249E+01 0.249E+01
-9.266 0.251E+01 0.251E+01
-9.265 0.254E+01 0.254E+01
-9.264 0.256E+01 0.256E+01
-9.263 0.259E+01 0.259E+01
-9.262 0.261E+01 0.261E+01
