E(eV) pdos(E) 
-10.000 0.236E-01
-9.999 0.235E-01
-9.998 0.234E-01
-9.997 0.233E-01
-9.996 0.232E-01
-9.995 0.230E-01
-9.994 0.229E-01
-9.993 0.228E-01
-9.992 0.227E-01
-9.991 0.226E-01
-9.990 0.225E-01
-9.989 0.224E-01
-9.988 0.223E-01
-9.987 0.222E-01
-9.986 0.221E-01
-9.985 0.219E-01
-9.984 0.218E-01
-9.983 0.217E-01
-9.982 0.216E-01
-9.981 0.215E-01
-9.980 0.213E-01
-9.979 0.213E-01
-9.978 0.212E-01
-9.977 0.211E-01
-9.976 0.210E-01
-9.975 0.208E-01
-9.974 0.207E-01
-9.973 0.206E-01
-9.972 0.206E-01
-9.971 0.205E-01
-9.970 0.204E-01
-9.969 0.202E-01
-9.968 0.201E-01
-9.967 0.200E-01
-9.966 0.200E-01
-9.965 0.199E-01
-9.964 0.197E-01
-9.963 0.196E-01
-9.962 0.195E-01
-9.961 0.195E-01
-9.960 0.194E-01
-9.959 0.193E-01
-9.958 0.191E-01
-9.957 0.190E-01
-9.956 0.190E-01
-9.955 0.189E-01
-9.954 0.188E-01
-9.953 0.187E-01
-9.952 0.186E-01
-9.951 0.185E-01
-9.950 0.184E-01
-9.949 0.183E-01
-9.948 0.183E-01
-9.947 0.182E-01
-9.946 0.180E-01
-9.945 0.180E-01
-9.944 0.179E-01
-9.943 0.178E-01
-9.942 0.177E-01
-9.941 0.177E-01
-9.940 0.176E-01
-9.939 0.174E-01
-9.938 0.174E-01
-9.937 0.173E-01
-9.936 0.172E-01
-9.935 0.172E-01
-9.934 0.171E-01
-9.933 0.170E-01
-9.932 0.170E-01
-9.931 0.168E-01
-9.930 0.167E-01
-9.929 0.167E-01
-9.928 0.166E-01
-9.927 0.165E-01
-9.926 0.164E-01
-9.925 0.164E-01
-9.924 0.163E-01
-9.923 0.162E-01
-9.922 0.161E-01
-9.921 0.161E-01
-9.920 0.160E-01
-9.919 0.159E-01
-9.918 0.159E-01
-9.917 0.158E-01
-9.916 0.157E-01
-9.915 0.156E-01
-9.914 0.156E-01
-9.913 0.155E-01
-9.912 0.154E-01
-9.911 0.154E-01
-9.910 0.153E-01
-9.909 0.152E-01
-9.908 0.152E-01
-9.907 0.151E-01
-9.906 0.150E-01
-9.905 0.150E-01
-9.904 0.149E-01
-9.903 0.148E-01
-9.902 0.148E-01
-9.901 0.147E-01
-9.900 0.146E-01
-9.899 0.146E-01
-9.898 0.145E-01
-9.897 0.145E-01
-9.896 0.144E-01
-9.895 0.143E-01
-9.894 0.143E-01
-9.893 0.142E-01
-9.892 0.142E-01
-9.891 0.141E-01
-9.890 0.140E-01
-9.889 0.140E-01
-9.888 0.139E-01
-9.887 0.139E-01
-9.886 0.138E-01
-9.885 0.138E-01
-9.884 0.137E-01
-9.883 0.137E-01
-9.882 0.136E-01
-9.881 0.136E-01
-9.880 0.135E-01
-9.879 0.135E-01
-9.878 0.134E-01
-9.877 0.134E-01
-9.876 0.133E-01
-9.875 0.133E-01
-9.874 0.132E-01
-9.873 0.132E-01
-9.872 0.131E-01
-9.871 0.131E-01
-9.870 0.130E-01
-9.869 0.130E-01
-9.868 0.129E-01
-9.867 0.129E-01
-9.866 0.129E-01
-9.865 0.128E-01
-9.864 0.128E-01
-9.863 0.127E-01
-9.862 0.127E-01
-9.861 0.126E-01
-9.860 0.126E-01
-9.859 0.126E-01
-9.858 0.125E-01
-9.857 0.125E-01
-9.856 0.124E-01
-9.855 0.124E-01
-9.854 0.124E-01
-9.853 0.123E-01
-9.852 0.123E-01
-9.851 0.123E-01
-9.850 0.122E-01
-9.849 0.122E-01
-9.848 0.121E-01
-9.847 0.121E-01
-9.846 0.121E-01
-9.845 0.120E-01
-9.844 0.120E-01
-9.843 0.120E-01
-9.842 0.120E-01
-9.841 0.119E-01
-9.840 0.119E-01
-9.839 0.119E-01
-9.838 0.118E-01
-9.837 0.118E-01
-9.836 0.118E-01
-9.835 0.117E-01
-9.834 0.117E-01
-9.833 0.117E-01
-9.832 0.117E-01
-9.831 0.116E-01
-9.830 0.116E-01
-9.829 0.116E-01
-9.828 0.115E-01
-9.827 0.115E-01
-9.826 0.115E-01
-9.825 0.115E-01
-9.824 0.114E-01
-9.823 0.114E-01
-9.822 0.114E-01
-9.821 0.114E-01
-9.820 0.114E-01
-9.819 0.113E-01
-9.818 0.113E-01
-9.817 0.113E-01
-9.816 0.113E-01
-9.815 0.113E-01
-9.814 0.112E-01
-9.813 0.112E-01
-9.812 0.112E-01
-9.811 0.112E-01
-9.810 0.112E-01
-9.809 0.112E-01
-9.808 0.111E-01
-9.807 0.111E-01
-9.806 0.111E-01
-9.805 0.111E-01
-9.804 0.111E-01
-9.803 0.111E-01
-9.802 0.111E-01
-9.801 0.110E-01
-9.800 0.110E-01
-9.799 0.110E-01
-9.798 0.110E-01
-9.797 0.110E-01
-9.796 0.110E-01
-9.795 0.110E-01
-9.794 0.110E-01
-9.793 0.110E-01
-9.792 0.110E-01
-9.791 0.109E-01
-9.790 0.109E-01
-9.789 0.109E-01
-9.788 0.109E-01
-9.787 0.109E-01
-9.786 0.109E-01
-9.785 0.109E-01
-9.784 0.109E-01
-9.783 0.109E-01
-9.782 0.109E-01
-9.781 0.109E-01
-9.780 0.109E-01
-9.779 0.109E-01
-9.778 0.109E-01
-9.777 0.109E-01
-9.776 0.109E-01
-9.775 0.109E-01
-9.774 0.109E-01
-9.773 0.109E-01
-9.772 0.109E-01
-9.771 0.109E-01
-9.770 0.109E-01
-9.769 0.109E-01
-9.768 0.109E-01
-9.767 0.109E-01
-9.766 0.109E-01
-9.765 0.109E-01
-9.764 0.109E-01
-9.763 0.109E-01
-9.762 0.109E-01
-9.761 0.109E-01
-9.760 0.109E-01
-9.759 0.109E-01
-9.758 0.109E-01
-9.757 0.109E-01
-9.756 0.109E-01
-9.755 0.109E-01
-9.754 0.109E-01
-9.753 0.109E-01
-9.752 0.109E-01
-9.751 0.109E-01
-9.750 0.110E-01
-9.749 0.110E-01
-9.748 0.110E-01
-9.747 0.110E-01
-9.746 0.110E-01
-9.745 0.110E-01
-9.744 0.110E-01
-9.743 0.110E-01
-9.742 0.110E-01
-9.741 0.110E-01
-9.740 0.111E-01
-9.739 0.111E-01
-9.738 0.111E-01
-9.737 0.111E-01
-9.736 0.111E-01
-9.735 0.111E-01
-9.734 0.111E-01
-9.733 0.112E-01
-9.732 0.112E-01
-9.731 0.112E-01
-9.730 0.112E-01
-9.729 0.112E-01
-9.728 0.112E-01
-9.727 0.113E-01
-9.726 0.113E-01
-9.725 0.113E-01
-9.724 0.113E-01
-9.723 0.113E-01
-9.722 0.113E-01
-9.721 0.114E-01
-9.720 0.114E-01
-9.719 0.114E-01
-9.718 0.114E-01
-9.717 0.115E-01
-9.716 0.115E-01
-9.715 0.115E-01
-9.714 0.115E-01
-9.713 0.115E-01
-9.712 0.116E-01
-9.711 0.116E-01
-9.710 0.116E-01
-9.709 0.116E-01
-9.708 0.117E-01
-9.707 0.117E-01
-9.706 0.117E-01
-9.705 0.117E-01
-9.704 0.118E-01
-9.703 0.118E-01
-9.702 0.118E-01
-9.701 0.118E-01
-9.700 0.119E-01
-9.699 0.119E-01
-9.698 0.119E-01
-9.697 0.119E-01
-9.696 0.120E-01
-9.695 0.120E-01
-9.694 0.120E-01
-9.693 0.121E-01
-9.692 0.121E-01
-9.691 0.121E-01
-9.690 0.122E-01
-9.689 0.122E-01
-9.688 0.122E-01
-9.687 0.123E-01
-9.686 0.123E-01
-9.685 0.123E-01
-9.684 0.124E-01
-9.683 0.124E-01
-9.682 0.124E-01
-9.681 0.125E-01
-9.680 0.125E-01
-9.679 0.125E-01
-9.678 0.126E-01
-9.677 0.126E-01
-9.676 0.126E-01
-9.675 0.127E-01
-9.674 0.127E-01
-9.673 0.127E-01
-9.672 0.128E-01
-9.671 0.128E-01
-9.670 0.128E-01
-9.669 0.129E-01
-9.668 0.129E-01
-9.667 0.130E-01
-9.666 0.130E-01
-9.665 0.130E-01
-9.664 0.131E-01
-9.663 0.131E-01
-9.662 0.132E-01
-9.661 0.132E-01
-9.660 0.132E-01
-9.659 0.133E-01
-9.658 0.133E-01
-9.657 0.133E-01
-9.656 0.134E-01
-9.655 0.134E-01
-9.654 0.135E-01
-9.653 0.135E-01
-9.652 0.136E-01
-9.651 0.136E-01
-9.650 0.136E-01
-9.649 0.137E-01
-9.648 0.137E-01
-9.647 0.138E-01
-9.646 0.138E-01
-9.645 0.139E-01
-9.644 0.139E-01
-9.643 0.139E-01
-9.642 0.140E-01
-9.641 0.140E-01
-9.640 0.141E-01
-9.639 0.141E-01
-9.638 0.142E-01
-9.637 0.142E-01
-9.636 0.143E-01
-9.635 0.143E-01
-9.634 0.144E-01
-9.633 0.144E-01
-9.632 0.144E-01
-9.631 0.145E-01
-9.630 0.145E-01
-9.629 0.146E-01
-9.628 0.146E-01
-9.627 0.147E-01
-9.626 0.147E-01
-9.625 0.148E-01
-9.624 0.148E-01
-9.623 0.149E-01
-9.622 0.149E-01
-9.621 0.150E-01
-9.620 0.150E-01
-9.619 0.151E-01
-9.618 0.151E-01
-9.617 0.152E-01
-9.616 0.152E-01
-9.615 0.153E-01
-9.614 0.153E-01
-9.613 0.154E-01
-9.612 0.154E-01
-9.611 0.155E-01
-9.610 0.155E-01
-9.609 0.156E-01
-9.608 0.156E-01
-9.607 0.157E-01
-9.606 0.157E-01
-9.605 0.158E-01
-9.604 0.158E-01
-9.603 0.159E-01
-9.602 0.159E-01
-9.601 0.160E-01
-9.600 0.160E-01
-9.599 0.161E-01
-9.598 0.162E-01
-9.597 0.162E-01
-9.596 0.163E-01
-9.595 0.163E-01
-9.594 0.164E-01
-9.593 0.164E-01
-9.592 0.165E-01
-9.591 0.165E-01
-9.590 0.166E-01
-9.589 0.166E-01
-9.588 0.167E-01
-9.587 0.167E-01
-9.586 0.168E-01
-9.585 0.168E-01
-9.584 0.169E-01
-9.583 0.169E-01
-9.582 0.170E-01
-9.581 0.171E-01
-9.580 0.171E-01
-9.579 0.172E-01
-9.578 0.172E-01
-9.577 0.173E-01
-9.576 0.173E-01
-9.575 0.174E-01
-9.574 0.174E-01
-9.573 0.175E-01
-9.572 0.175E-01
-9.571 0.176E-01
-9.570 0.176E-01
-9.569 0.177E-01
-9.568 0.178E-01
-9.567 0.178E-01
-9.566 0.179E-01
-9.565 0.179E-01
-9.564 0.180E-01
-9.563 0.180E-01
-9.562 0.181E-01
-9.561 0.181E-01
-9.560 0.182E-01
-9.559 0.182E-01
-9.558 0.183E-01
-9.557 0.183E-01
-9.556 0.184E-01
-9.555 0.185E-01
-9.554 0.185E-01
-9.553 0.186E-01
-9.552 0.186E-01
-9.551 0.187E-01
-9.550 0.187E-01
-9.549 0.188E-01
-9.548 0.188E-01
-9.547 0.189E-01
-9.546 0.189E-01
-9.545 0.190E-01
-9.544 0.190E-01
-9.543 0.191E-01
-9.542 0.191E-01
-9.541 0.192E-01
-9.540 0.192E-01
-9.539 0.193E-01
-9.538 0.193E-01
-9.537 0.194E-01
-9.536 0.195E-01
-9.535 0.195E-01
-9.534 0.196E-01
-9.533 0.196E-01
-9.532 0.197E-01
-9.531 0.197E-01
-9.530 0.198E-01
-9.529 0.198E-01
-9.528 0.199E-01
-9.527 0.199E-01
-9.526 0.200E-01
-9.525 0.200E-01
-9.524 0.201E-01
-9.523 0.201E-01
-9.522 0.202E-01
-9.521 0.202E-01
-9.520 0.203E-01
-9.519 0.203E-01
-9.518 0.204E-01
-9.517 0.204E-01
-9.516 0.205E-01
-9.515 0.205E-01
-9.514 0.206E-01
-9.513 0.206E-01
-9.512 0.207E-01
-9.511 0.207E-01
-9.510 0.208E-01
-9.509 0.208E-01
-9.508 0.208E-01
-9.507 0.209E-01
-9.506 0.209E-01
-9.505 0.210E-01
-9.504 0.210E-01
-9.503 0.211E-01
-9.502 0.211E-01
-9.501 0.212E-01
-9.500 0.212E-01
-9.499 0.212E-01
-9.498 0.213E-01
-9.497 0.213E-01
-9.496 0.214E-01
-9.495 0.214E-01
-9.494 0.215E-01
-9.493 0.215E-01
-9.492 0.216E-01
-9.491 0.216E-01
-9.490 0.216E-01
-9.489 0.217E-01
-9.488 0.217E-01
-9.487 0.218E-01
-9.486 0.218E-01
-9.485 0.218E-01
-9.484 0.219E-01
-9.483 0.219E-01
-9.482 0.220E-01
-9.481 0.220E-01
-9.480 0.220E-01
-9.479 0.221E-01
-9.478 0.221E-01
-9.477 0.221E-01
-9.476 0.222E-01
-9.475 0.222E-01
-9.474 0.223E-01
-9.473 0.223E-01
-9.472 0.223E-01
-9.471 0.224E-01
-9.470 0.224E-01
-9.469 0.224E-01
-9.468 0.225E-01
-9.467 0.225E-01
-9.466 0.225E-01
-9.465 0.226E-01
-9.464 0.226E-01
-9.463 0.226E-01
-9.462 0.227E-01
-9.461 0.227E-01
-9.460 0.227E-01
-9.459 0.228E-01
-9.458 0.228E-01
-9.457 0.228E-01
-9.456 0.228E-01
-9.455 0.229E-01
-9.454 0.229E-01
-9.453 0.229E-01
-9.452 0.230E-01
-9.451 0.230E-01
-9.450 0.230E-01
-9.449 0.230E-01
-9.448 0.231E-01
-9.447 0.231E-01
-9.446 0.231E-01
-9.445 0.231E-01
-9.444 0.232E-01
-9.443 0.232E-01
-9.442 0.232E-01
-9.441 0.232E-01
-9.440 0.232E-01
-9.439 0.233E-01
-9.438 0.233E-01
-9.437 0.233E-01
-9.436 0.233E-01
-9.435 0.234E-01
-9.434 0.234E-01
-9.433 0.234E-01
-9.432 0.234E-01
-9.431 0.234E-01
-9.430 0.234E-01
-9.429 0.235E-01
-9.428 0.235E-01
-9.427 0.235E-01
-9.426 0.235E-01
-9.425 0.235E-01
-9.424 0.235E-01
-9.423 0.235E-01
-9.422 0.236E-01
-9.421 0.236E-01
-9.420 0.236E-01
-9.419 0.236E-01
-9.418 0.236E-01
-9.417 0.236E-01
-9.416 0.236E-01
-9.415 0.236E-01
-9.414 0.236E-01
-9.413 0.237E-01
-9.412 0.237E-01
-9.411 0.237E-01
-9.410 0.237E-01
-9.409 0.237E-01
-9.408 0.237E-01
-9.407 0.237E-01
-9.406 0.237E-01
-9.405 0.237E-01
-9.404 0.237E-01
-9.403 0.237E-01
-9.402 0.237E-01
-9.401 0.237E-01
-9.400 0.237E-01
-9.399 0.237E-01
-9.398 0.237E-01
-9.397 0.237E-01
-9.396 0.237E-01
-9.395 0.237E-01
-9.394 0.237E-01
-9.393 0.237E-01
-9.392 0.237E-01
-9.391 0.237E-01
-9.390 0.237E-01
-9.389 0.237E-01
-9.388 0.237E-01
-9.387 0.237E-01
-9.386 0.237E-01
-9.385 0.237E-01
-9.384 0.237E-01
-9.383 0.237E-01
-9.382 0.236E-01
-9.381 0.236E-01
-9.380 0.236E-01
-9.379 0.236E-01
-9.378 0.236E-01
-9.377 0.236E-01
-9.376 0.236E-01
-9.375 0.236E-01
-9.374 0.236E-01
-9.373 0.236E-01
-9.372 0.236E-01
-9.371 0.235E-01
-9.370 0.235E-01
-9.369 0.235E-01
-9.368 0.235E-01
-9.367 0.235E-01
-9.366 0.235E-01
-9.365 0.234E-01
-9.364 0.234E-01
-9.363 0.234E-01
-9.362 0.234E-01
-9.361 0.234E-01
-9.360 0.233E-01
-9.359 0.233E-01
-9.358 0.233E-01
-9.357 0.233E-01
-9.356 0.233E-01
-9.355 0.232E-01
-9.354 0.232E-01
-9.353 0.232E-01
-9.352 0.232E-01
-9.351 0.232E-01
-9.350 0.231E-01
-9.349 0.231E-01
-9.348 0.231E-01
-9.347 0.230E-01
-9.346 0.230E-01
-9.345 0.230E-01
-9.344 0.230E-01
-9.343 0.229E-01
-9.342 0.229E-01
-9.341 0.229E-01
-9.340 0.228E-01
-9.339 0.228E-01
-9.338 0.228E-01
-9.337 0.228E-01
-9.336 0.227E-01
-9.335 0.227E-01
-9.334 0.227E-01
-9.333 0.226E-01
-9.332 0.226E-01
-9.331 0.225E-01
-9.330 0.225E-01
-9.329 0.225E-01
-9.328 0.225E-01
-9.327 0.224E-01
-9.326 0.224E-01
-9.325 0.223E-01
-9.324 0.223E-01
-9.323 0.223E-01
-9.322 0.222E-01
-9.321 0.222E-01
-9.320 0.221E-01
-9.319 0.221E-01
-9.318 0.221E-01
-9.317 0.220E-01
-9.316 0.220E-01
-9.315 0.219E-01
-9.314 0.219E-01
-9.313 0.219E-01
-9.312 0.218E-01
-9.311 0.218E-01
-9.310 0.217E-01
-9.309 0.217E-01
-9.308 0.216E-01
-9.307 0.216E-01
-9.306 0.215E-01
-9.305 0.215E-01
-9.304 0.215E-01
-9.303 0.214E-01
-9.302 0.214E-01
-9.301 0.213E-01
-9.300 0.213E-01
-9.299 0.212E-01
-9.298 0.212E-01
-9.297 0.211E-01
-9.296 0.211E-01
-9.295 0.210E-01
-9.294 0.210E-01
-9.293 0.209E-01
-9.292 0.209E-01
-9.291 0.208E-01
-9.290 0.208E-01
-9.289 0.207E-01
-9.288 0.207E-01
-9.287 0.206E-01
-9.286 0.206E-01
-9.285 0.205E-01
-9.284 0.205E-01
-9.283 0.204E-01
-9.282 0.204E-01
-9.281 0.203E-01
-9.280 0.202E-01
-9.279 0.202E-01
-9.278 0.201E-01
-9.277 0.201E-01
-9.276 0.200E-01
-9.275 0.200E-01
-9.274 0.199E-01
-9.273 0.198E-01
-9.272 0.198E-01
-9.271 0.197E-01
-9.270 0.197E-01
-9.269 0.196E-01
-9.268 0.196E-01
-9.267 0.195E-01
-9.266 0.195E-01
-9.265 0.194E-01
-9.264 0.193E-01
-9.263 0.193E-01
-9.262 0.192E-01
-9.261 0.192E-01
-9.260 0.191E-01
-9.259 0.190E-01
-9.258 0.190E-01
-9.257 0.189E-01
-9.256 0.189E-01
-9.255 0.188E-01
-9.254 0.187E-01
-9.253 0.187E-01
-9.252 0.186E-01
-9.251 0.185E-01
-9.250 0.185E-01
-9.249 0.184E-01
-9.248 0.184E-01
-9.247 0.183E-01
-9.246 0.182E-01
-9.245 0.182E-01
-9.244 0.181E-01
-9.243 0.181E-01
-9.242 0.180E-01
-9.241 0.179E-01
-9.240 0.179E-01
-9.239 0.178E-01
-9.238 0.177E-01
-9.237 0.177E-01
-9.236 0.176E-01
-9.235 0.175E-01
-9.234 0.175E-01
-9.233 0.174E-01
-9.232 0.173E-01
-9.231 0.173E-01
-9.230 0.172E-01
-9.229 0.171E-01
-9.228 0.171E-01
-9.227 0.170E-01
-9.226 0.169E-01
-9.225 0.169E-01
-9.224 0.168E-01
-9.223 0.167E-01
-9.222 0.167E-01
-9.221 0.166E-01
-9.220 0.165E-01
-9.219 0.165E-01
-9.218 0.164E-01
-9.217 0.163E-01
-9.216 0.163E-01
-9.215 0.162E-01
-9.214 0.161E-01
-9.213 0.161E-01
-9.212 0.160E-01
-9.211 0.159E-01
-9.210 0.159E-01
-9.209 0.158E-01
-9.208 0.157E-01
-9.207 0.157E-01
-9.206 0.156E-01
-9.205 0.155E-01
-9.204 0.155E-01
-9.203 0.154E-01
-9.202 0.153E-01
-9.201 0.153E-01
-9.200 0.152E-01
-9.199 0.151E-01
-9.198 0.151E-01
-9.197 0.150E-01
-9.196 0.149E-01
-9.195 0.149E-01
-9.194 0.148E-01
-9.193 0.147E-01
-9.192 0.147E-01
-9.191 0.146E-01
-9.190 0.145E-01
-9.189 0.145E-01
-9.188 0.144E-01
-9.187 0.143E-01
-9.186 0.143E-01
-9.185 0.142E-01
-9.184 0.141E-01
-9.183 0.141E-01
-9.182 0.140E-01
-9.181 0.139E-01
-9.180 0.139E-01
-9.179 0.138E-01
-9.178 0.137E-01
-9.177 0.137E-01
-9.176 0.136E-01
-9.175 0.136E-01
-9.174 0.135E-01
-9.173 0.134E-01
-9.172 0.134E-01
-9.171 0.133E-01
-9.170 0.132E-01
-9.169 0.132E-01
-9.168 0.131E-01
-9.167 0.130E-01
-9.166 0.130E-01
-9.165 0.129E-01
-9.164 0.128E-01
-9.163 0.128E-01
-9.162 0.127E-01
-9.161 0.126E-01
-9.160 0.126E-01
-9.159 0.125E-01
-9.158 0.125E-01
-9.157 0.124E-01
-9.156 0.123E-01
-9.155 0.123E-01
-9.154 0.122E-01
-9.153 0.121E-01
-9.152 0.121E-01
-9.151 0.120E-01
-9.150 0.120E-01
-9.149 0.119E-01
-9.148 0.118E-01
-9.147 0.118E-01
-9.146 0.117E-01
-9.145 0.116E-01
-9.144 0.116E-01
-9.143 0.115E-01
-9.142 0.115E-01
-9.141 0.114E-01
-9.140 0.114E-01
-9.139 0.113E-01
-9.138 0.112E-01
-9.137 0.112E-01
-9.136 0.111E-01
-9.135 0.111E-01
-9.134 0.110E-01
-9.133 0.109E-01
-9.132 0.109E-01
-9.131 0.108E-01
-9.130 0.108E-01
-9.129 0.107E-01
-9.128 0.107E-01
-9.127 0.106E-01
-9.126 0.105E-01
-9.125 0.105E-01
-9.124 0.104E-01
-9.123 0.104E-01
-9.122 0.103E-01
-9.121 0.103E-01
-9.120 0.102E-01
-9.119 0.102E-01
-9.118 0.101E-01
-9.117 0.100E-01
-9.116 0.998E-02
-9.115 0.993E-02
-9.114 0.988E-02
-9.113 0.983E-02
-9.112 0.977E-02
-9.111 0.972E-02
-9.110 0.966E-02
-9.109 0.962E-02
-9.108 0.956E-02
-9.107 0.951E-02
-9.106 0.945E-02
-9.105 0.941E-02
-9.104 0.935E-02
-9.103 0.931E-02
-9.102 0.926E-02
-9.101 0.921E-02
-9.100 0.915E-02
-9.099 0.910E-02
-9.098 0.906E-02
-9.097 0.900E-02
-9.096 0.896E-02
-9.095 0.890E-02
-9.094 0.887E-02
-9.093 0.882E-02
-9.092 0.876E-02
-9.091 0.872E-02
-9.090 0.867E-02
-9.089 0.863E-02
-9.088 0.858E-02
-9.087 0.854E-02
-9.086 0.849E-02
-9.085 0.844E-02
-9.084 0.839E-02
-9.083 0.835E-02
-9.082 0.832E-02
-9.081 0.827E-02
-9.080 0.823E-02
-9.079 0.819E-02
-9.078 0.813E-02
-9.077 0.810E-02
-9.076 0.805E-02
-9.075 0.802E-02
-9.074 0.798E-02
-9.073 0.793E-02
-9.072 0.789E-02
-9.071 0.784E-02
-9.070 0.781E-02
-9.069 0.777E-02
-9.068 0.772E-02
-9.067 0.769E-02
-9.066 0.765E-02
-9.065 0.761E-02
-9.064 0.757E-02
-9.063 0.754E-02
-9.062 0.751E-02
-9.061 0.745E-02
-9.060 0.742E-02
-9.059 0.739E-02
-9.058 0.735E-02
-9.057 0.732E-02
-9.056 0.728E-02
-9.055 0.723E-02
-9.054 0.721E-02
-9.053 0.717E-02
-9.052 0.714E-02
-9.051 0.710E-02
-9.050 0.707E-02
-9.049 0.704E-02
-9.048 0.701E-02
-9.047 0.698E-02
-9.046 0.694E-02
-9.045 0.690E-02
-9.044 0.688E-02
-9.043 0.684E-02
-9.042 0.682E-02
-9.041 0.678E-02
-9.040 0.676E-02
-9.039 0.673E-02
-9.038 0.670E-02
-9.037 0.667E-02
-9.036 0.664E-02
-9.035 0.661E-02
-9.034 0.658E-02
-9.033 0.655E-02
-9.032 0.652E-02
-9.031 0.650E-02
-9.030 0.647E-02
-9.029 0.644E-02
-9.028 0.641E-02
-9.027 0.640E-02
-9.026 0.637E-02
-9.025 0.634E-02
-9.024 0.631E-02
-9.023 0.629E-02
-9.022 0.627E-02
-9.021 0.625E-02
-9.020 0.622E-02
-9.019 0.620E-02
-9.018 0.617E-02
-9.017 0.616E-02
-9.016 0.614E-02
-9.015 0.611E-02
-9.014 0.609E-02
-9.013 0.607E-02
-9.012 0.604E-02
-9.011 0.602E-02
-9.010 0.601E-02
-9.009 0.598E-02
-9.008 0.596E-02
-9.007 0.595E-02
-9.006 0.593E-02
-9.005 0.591E-02
-9.004 0.589E-02
-9.003 0.587E-02
-9.002 0.586E-02
-9.001 0.584E-02
-9.000 0.582E-02
-8.999 0.581E-02
-8.998 0.580E-02
-8.997 0.578E-02
-8.996 0.577E-02
-8.995 0.575E-02
-8.994 0.574E-02
-8.993 0.571E-02
-8.992 0.570E-02
-8.991 0.569E-02
-8.990 0.568E-02
-8.989 0.567E-02
-8.988 0.565E-02
-8.987 0.564E-02
-8.986 0.563E-02
-8.985 0.562E-02
-8.984 0.561E-02
-8.983 0.559E-02
-8.982 0.559E-02
-8.981 0.558E-02
-8.980 0.556E-02
-8.979 0.555E-02
-8.978 0.555E-02
-8.977 0.553E-02
-8.976 0.552E-02
-8.975 0.552E-02
-8.974 0.551E-02
-8.973 0.550E-02
-8.972 0.549E-02
-8.971 0.548E-02
-8.970 0.548E-02
-8.969 0.548E-02
-8.968 0.547E-02
-8.967 0.546E-02
-8.966 0.545E-02
-8.965 0.545E-02
-8.964 0.544E-02
-8.963 0.545E-02
-8.962 0.543E-02
-8.961 0.544E-02
-8.960 0.543E-02
-8.959 0.542E-02
-8.958 0.541E-02
-8.957 0.542E-02
-8.956 0.541E-02
-8.955 0.541E-02
-8.954 0.542E-02
-8.953 0.541E-02
-8.952 0.541E-02
-8.951 0.540E-02
-8.950 0.541E-02
-8.949 0.540E-02
-8.948 0.540E-02
-8.947 0.541E-02
-8.946 0.542E-02
-8.945 0.541E-02
-8.944 0.541E-02
-8.943 0.542E-02
-8.942 0.542E-02
-8.941 0.541E-02
-8.940 0.542E-02
-8.939 0.542E-02
-8.938 0.543E-02
-8.937 0.543E-02
-8.936 0.543E-02
-8.935 0.543E-02
-8.934 0.544E-02
-8.933 0.545E-02
-8.932 0.545E-02
-8.931 0.546E-02
-8.930 0.545E-02
-8.929 0.547E-02
-8.928 0.547E-02
-8.927 0.547E-02
-8.926 0.549E-02
-8.925 0.550E-02
-8.924 0.549E-02
-8.923 0.551E-02
-8.922 0.551E-02
-8.921 0.552E-02
-8.920 0.553E-02
-8.919 0.554E-02
-8.918 0.555E-02
-8.917 0.556E-02
-8.916 0.556E-02
-8.915 0.558E-02
-8.914 0.559E-02
-8.913 0.561E-02
-8.912 0.561E-02
-8.911 0.562E-02
-8.910 0.563E-02
-8.909 0.564E-02
-8.908 0.565E-02
-8.907 0.566E-02
-8.906 0.568E-02
-8.905 0.569E-02
-8.904 0.570E-02
-8.903 0.572E-02
-8.902 0.572E-02
-8.901 0.574E-02
-8.900 0.575E-02
-8.899 0.576E-02
-8.898 0.578E-02
-8.897 0.579E-02
-8.896 0.581E-02
-8.895 0.582E-02
-8.894 0.584E-02
-8.893 0.586E-02
-8.892 0.587E-02
-8.891 0.589E-02
-8.890 0.590E-02
-8.889 0.592E-02
-8.888 0.593E-02
-8.887 0.595E-02
-8.886 0.597E-02
-8.885 0.598E-02
-8.884 0.600E-02
-8.883 0.602E-02
-8.882 0.605E-02
-8.881 0.607E-02
-8.880 0.607E-02
-8.879 0.609E-02
-8.878 0.611E-02
-8.877 0.614E-02
-8.876 0.616E-02
-8.875 0.618E-02
-8.874 0.619E-02
-8.873 0.622E-02
-8.872 0.624E-02
-8.871 0.625E-02
-8.870 0.628E-02
-8.869 0.630E-02
-8.868 0.632E-02
-8.867 0.635E-02
-8.866 0.637E-02
-8.865 0.639E-02
-8.864 0.642E-02
-8.863 0.644E-02
-8.862 0.646E-02
-8.861 0.649E-02
-8.860 0.650E-02
-8.859 0.652E-02
-8.858 0.655E-02
-8.857 0.658E-02
-8.856 0.661E-02
-8.855 0.663E-02
-8.854 0.665E-02
-8.853 0.668E-02
-8.852 0.670E-02
-8.851 0.673E-02
-8.850 0.675E-02
-8.849 0.679E-02
-8.848 0.681E-02
-8.847 0.683E-02
-8.846 0.686E-02
-8.845 0.688E-02
-8.844 0.692E-02
-8.843 0.694E-02
-8.842 0.697E-02
-8.841 0.699E-02
-8.840 0.702E-02
-8.839 0.704E-02
-8.838 0.708E-02
-8.837 0.711E-02
-8.836 0.714E-02
-8.835 0.716E-02
-8.834 0.720E-02
-8.833 0.722E-02
-8.832 0.725E-02
-8.831 0.730E-02
-8.830 0.732E-02
-8.829 0.735E-02
-8.828 0.738E-02
-8.827 0.741E-02
-8.826 0.743E-02
