E(eV) pdos(E) 
-10.000 0.977E-02
-9.999 0.968E-02
-9.998 0.959E-02
-9.997 0.951E-02
-9.996 0.943E-02
-9.995 0.936E-02
-9.994 0.928E-02
-9.993 0.920E-02
-9.992 0.912E-02
-9.991 0.904E-02
-9.990 0.895E-02
-9.989 0.887E-02
-9.988 0.879E-02
-9.987 0.873E-02
-9.986 0.865E-02
-9.985 0.857E-02
-9.984 0.849E-02
-9.983 0.843E-02
-9.982 0.835E-02
-9.981 0.827E-02
-9.980 0.818E-02
-9.979 0.812E-02
-9.978 0.804E-02
-9.977 0.798E-02
-9.976 0.790E-02
-9.975 0.782E-02
-9.974 0.776E-02
-9.973 0.768E-02
-9.972 0.762E-02
-9.971 0.754E-02
-9.970 0.748E-02
-9.969 0.740E-02
-9.968 0.735E-02
-9.967 0.727E-02
-9.966 0.721E-02
-9.965 0.713E-02
-9.964 0.707E-02
-9.963 0.701E-02
-9.962 0.694E-02
-9.961 0.688E-02
-9.960 0.682E-02
-9.959 0.673E-02
-9.958 0.668E-02
-9.957 0.662E-02
-9.956 0.654E-02
-9.955 0.649E-02
-9.954 0.643E-02
-9.953 0.637E-02
-9.952 0.630E-02
-9.951 0.624E-02
-9.950 0.618E-02
-9.949 0.613E-02
-9.948 0.607E-02
-9.947 0.601E-02
-9.946 0.596E-02
-9.945 0.588E-02
-9.944 0.583E-02
-9.943 0.577E-02
-9.942 0.572E-02
-9.941 0.566E-02
-9.940 0.561E-02
-9.939 0.555E-02
-9.938 0.550E-02
-9.937 0.544E-02
-9.936 0.539E-02
-9.935 0.532E-02
-9.934 0.527E-02
-9.933 0.523E-02
-9.932 0.518E-02
-9.931 0.513E-02
-9.930 0.507E-02
-9.929 0.502E-02
-9.928 0.496E-02
-9.927 0.491E-02
-9.926 0.488E-02
-9.925 0.482E-02
-9.924 0.477E-02
-9.923 0.472E-02
-9.922 0.466E-02
-9.921 0.463E-02
-9.920 0.458E-02
-9.919 0.453E-02
-9.918 0.449E-02
-9.917 0.444E-02
-9.916 0.439E-02
-9.915 0.436E-02
-9.914 0.430E-02
-9.913 0.425E-02
-9.912 0.422E-02
-9.911 0.417E-02
-9.910 0.414E-02
-9.909 0.408E-02
-9.908 0.403E-02
-9.907 0.400E-02
-9.906 0.395E-02
-9.905 0.392E-02
-9.904 0.387E-02
-9.903 0.383E-02
-9.902 0.377E-02
-9.901 0.374E-02
-9.900 0.370E-02
-9.899 0.367E-02
-9.898 0.364E-02
-9.897 0.358E-02
-9.896 0.355E-02
-9.895 0.350E-02
-9.894 0.347E-02
-9.893 0.344E-02
-9.892 0.339E-02
-9.891 0.336E-02
-9.890 0.333E-02
-9.889 0.328E-02
-9.888 0.325E-02
-9.887 0.322E-02
-9.886 0.317E-02
-9.885 0.314E-02
-9.884 0.311E-02
-9.883 0.308E-02
-9.882 0.303E-02
-9.881 0.300E-02
-9.880 0.297E-02
-9.879 0.294E-02
-9.878 0.290E-02
-9.877 0.287E-02
-9.876 0.284E-02
-9.875 0.281E-02
-9.874 0.278E-02
-9.873 0.274E-02
-9.872 0.271E-02
-9.871 0.268E-02
-9.870 0.265E-02
-9.869 0.262E-02
-9.868 0.259E-02
-9.867 0.256E-02
-9.866 0.253E-02
-9.865 0.250E-02
-9.864 0.247E-02
-9.863 0.244E-02
-9.862 0.242E-02
-9.861 0.239E-02
-9.860 0.236E-02
-9.859 0.233E-02
-9.858 0.230E-02
-9.857 0.228E-02
-9.856 0.225E-02
-9.855 0.223E-02
-9.854 0.220E-02
-9.853 0.217E-02
-9.852 0.215E-02
-9.851 0.212E-02
-9.850 0.210E-02
-9.849 0.207E-02
-9.848 0.205E-02
-9.847 0.202E-02
-9.846 0.200E-02
-9.845 0.197E-02
-9.844 0.195E-02
-9.843 0.193E-02
-9.842 0.190E-02
-9.841 0.188E-02
-9.840 0.186E-02
-9.839 0.184E-02
-9.838 0.181E-02
-9.837 0.179E-02
-9.836 0.177E-02
-9.835 0.175E-02
-9.834 0.173E-02
-9.833 0.170E-02
-9.832 0.168E-02
-9.831 0.166E-02
-9.830 0.164E-02
-9.829 0.162E-02
-9.828 0.160E-02
-9.827 0.158E-02
-9.826 0.156E-02
-9.825 0.154E-02
-9.824 0.152E-02
-9.823 0.151E-02
-9.822 0.149E-02
-9.821 0.147E-02
-9.820 0.145E-02
-9.819 0.143E-02
-9.818 0.141E-02
-9.817 0.139E-02
-9.816 0.138E-02
-9.815 0.136E-02
-9.814 0.134E-02
-9.813 0.132E-02
-9.812 0.131E-02
-9.811 0.129E-02
-9.810 0.127E-02
-9.809 0.126E-02
-9.808 0.124E-02
-9.807 0.123E-02
-9.806 0.121E-02
-9.805 0.119E-02
-9.804 0.118E-02
-9.803 0.116E-02
-9.802 0.115E-02
-9.801 0.113E-02
-9.800 0.112E-02
-9.799 0.110E-02
-9.798 0.109E-02
-9.797 0.108E-02
-9.796 0.106E-02
-9.795 0.105E-02
-9.794 0.103E-02
-9.793 0.102E-02
-9.792 0.101E-02
-9.791 0.993E-03
-9.790 0.979E-03
-9.789 0.966E-03
-9.788 0.954E-03
-9.787 0.941E-03
-9.786 0.929E-03
-9.785 0.916E-03
-9.784 0.905E-03
-9.783 0.892E-03
-9.782 0.880E-03
-9.781 0.866E-03
-9.780 0.855E-03
-9.779 0.844E-03
-9.778 0.833E-03
-9.777 0.822E-03
-9.776 0.811E-03
-9.775 0.800E-03
-9.774 0.789E-03
-9.773 0.778E-03
-9.772 0.767E-03
-9.771 0.756E-03
-9.770 0.746E-03
-9.769 0.735E-03
-9.768 0.726E-03
-9.767 0.715E-03
-9.766 0.706E-03
-9.765 0.695E-03
-9.764 0.685E-03
-9.763 0.676E-03
-9.762 0.668E-03
-9.761 0.657E-03
-9.760 0.649E-03
-9.759 0.640E-03
-9.758 0.630E-03
-9.757 0.621E-03
-9.756 0.613E-03
-9.755 0.605E-03
-9.754 0.597E-03
-9.753 0.588E-03
-9.752 0.580E-03
-9.751 0.572E-03
-9.750 0.564E-03
-9.749 0.555E-03
-9.748 0.546E-03
-9.747 0.538E-03
-9.746 0.530E-03
-9.745 0.522E-03
-9.744 0.516E-03
-9.743 0.508E-03
-9.742 0.500E-03
-9.741 0.494E-03
-9.740 0.486E-03
-9.739 0.479E-03
-9.738 0.473E-03
-9.737 0.465E-03
-9.736 0.459E-03
-9.735 0.453E-03
-9.734 0.446E-03
-9.733 0.440E-03
-9.732 0.432E-03
-9.731 0.426E-03
-9.730 0.421E-03
-9.729 0.415E-03
-9.728 0.407E-03
-9.727 0.401E-03
-9.726 0.395E-03
-9.725 0.390E-03
-9.724 0.384E-03
-9.723 0.379E-03
-9.722 0.373E-03
-9.721 0.368E-03
-9.720 0.362E-03
-9.719 0.357E-03
-9.718 0.351E-03
-9.717 0.346E-03
-9.716 0.341E-03
-9.715 0.335E-03
-9.714 0.330E-03
-9.713 0.324E-03
-9.712 0.321E-03
-9.711 0.316E-03
-9.710 0.311E-03
-9.709 0.305E-03
-9.708 0.302E-03
-9.707 0.297E-03
-9.706 0.291E-03
-9.705 0.288E-03
-9.704 0.283E-03
-9.703 0.278E-03
-9.702 0.274E-03
-9.701 0.270E-03
-9.700 0.266E-03
-9.699 0.262E-03
-9.698 0.258E-03
-9.697 0.254E-03
-9.696 0.250E-03
-9.695 0.246E-03
-9.694 0.242E-03
-9.693 0.238E-03
-9.692 0.235E-03
-9.691 0.231E-03
-9.690 0.227E-03
-9.689 0.224E-03
-9.688 0.220E-03
-9.687 0.217E-03
-9.686 0.213E-03
-9.685 0.210E-03
-9.684 0.207E-03
-9.683 0.203E-03
-9.682 0.200E-03
-9.681 0.197E-03
-9.680 0.194E-03
-9.679 0.191E-03
-9.678 0.188E-03
-9.677 0.185E-03
-9.676 0.182E-03
-9.675 0.179E-03
-9.674 0.176E-03
-9.673 0.173E-03
-9.672 0.170E-03
-9.671 0.168E-03
-9.670 0.165E-03
-9.669 0.162E-03
-9.668 0.160E-03
-9.667 0.157E-03
-9.666 0.154E-03
-9.665 0.152E-03
-9.664 0.149E-03
-9.663 0.147E-03
-9.662 0.145E-03
-9.661 0.142E-03
-9.660 0.140E-03
-9.659 0.138E-03
-9.658 0.135E-03
-9.657 0.133E-03
-9.656 0.131E-03
-9.655 0.129E-03
-9.654 0.127E-03
-9.653 0.124E-03
-9.652 0.122E-03
-9.651 0.121E-03
-9.650 0.118E-03
-9.649 0.116E-03
-9.648 0.114E-03
-9.647 0.113E-03
-9.646 0.111E-03
-9.645 0.109E-03
-9.644 0.107E-03
-9.643 0.105E-03
-9.642 0.103E-03
-9.641 0.102E-03
-9.640 0.999E-04
-9.639 0.983E-04
-9.638 0.966E-04
-9.637 0.950E-04
-9.636 0.934E-04
-9.635 0.917E-04
-9.634 0.901E-04
-9.633 0.886E-04
-9.632 0.870E-04
-9.631 0.856E-04
-9.630 0.842E-04
-9.629 0.826E-04
-9.628 0.813E-04
-9.627 0.799E-04
-9.626 0.785E-04
-9.625 0.772E-04
-9.624 0.758E-04
-9.623 0.745E-04
-9.622 0.732E-04
-9.621 0.719E-04
-9.620 0.707E-04
-9.619 0.694E-04
-9.618 0.683E-04
-9.617 0.670E-04
-9.616 0.659E-04
-9.615 0.648E-04
-9.614 0.637E-04
-9.613 0.626E-04
-9.612 0.615E-04
-9.611 0.604E-04
-9.610 0.593E-04
-9.609 0.582E-04
-9.608 0.571E-04
-9.607 0.562E-04
-9.606 0.551E-04
-9.605 0.541E-04
-9.604 0.532E-04
-9.603 0.522E-04
-9.602 0.513E-04
-9.601 0.505E-04
-9.600 0.494E-04
-9.599 0.486E-04
-9.598 0.478E-04
-9.597 0.469E-04
-9.596 0.461E-04
-9.595 0.453E-04
-9.594 0.445E-04
-9.593 0.437E-04
-9.592 0.428E-04
-9.591 0.420E-04
-9.590 0.412E-04
-9.589 0.405E-04
-9.588 0.397E-04
-9.587 0.389E-04
-9.586 0.384E-04
-9.585 0.376E-04
-9.584 0.370E-04
-9.583 0.362E-04
-9.582 0.357E-04
-9.581 0.349E-04
-9.580 0.343E-04
-9.579 0.337E-04
-9.578 0.332E-04
-9.577 0.324E-04
-9.576 0.318E-04
-9.575 0.313E-04
-9.574 0.307E-04
-9.573 0.302E-04
-9.572 0.296E-04
-9.571 0.291E-04
-9.570 0.285E-04
-9.569 0.280E-04
-9.568 0.274E-04
-9.567 0.269E-04
-9.566 0.264E-04
-9.565 0.259E-04
-9.564 0.254E-04
-9.563 0.249E-04
-9.562 0.245E-04
-9.561 0.240E-04
-9.560 0.236E-04
-9.559 0.231E-04
-9.558 0.227E-04
-9.557 0.222E-04
-9.556 0.218E-04
-9.555 0.214E-04
-9.554 0.210E-04
-9.553 0.206E-04
-9.552 0.202E-04
-9.551 0.198E-04
-9.550 0.194E-04
-9.549 0.191E-04
-9.548 0.187E-04
-9.547 0.184E-04
-9.546 0.180E-04
-9.545 0.176E-04
-9.544 0.173E-04
-9.543 0.170E-04
-9.542 0.167E-04
-9.541 0.163E-04
-9.540 0.160E-04
-9.539 0.157E-04
-9.538 0.154E-04
-9.537 0.151E-04
-9.536 0.148E-04
-9.535 0.145E-04
-9.534 0.142E-04
-9.533 0.140E-04
-9.532 0.137E-04
-9.531 0.134E-04
-9.530 0.131E-04
-9.529 0.129E-04
-9.528 0.126E-04
-9.527 0.124E-04
-9.526 0.121E-04
-9.525 0.119E-04
-9.524 0.117E-04
-9.523 0.114E-04
-9.522 0.112E-04
-9.521 0.110E-04
-9.520 0.108E-04
-9.519 0.106E-04
-9.518 0.103E-04
-9.517 0.101E-04
-9.516 0.993E-05
-9.515 0.973E-05
-9.514 0.954E-05
-9.513 0.935E-05
-9.512 0.916E-05
-9.511 0.896E-05
-9.510 0.880E-05
-9.509 0.861E-05
-9.508 0.844E-05
-9.507 0.828E-05
-9.506 0.811E-05
-9.505 0.795E-05
-9.504 0.779E-05
-9.503 0.763E-05
-9.502 0.746E-05
-9.501 0.732E-05
-9.500 0.716E-05
-9.499 0.702E-05
-9.498 0.688E-05
-9.497 0.674E-05
-9.496 0.661E-05
-9.495 0.647E-05
-9.494 0.633E-05
-9.493 0.620E-05
-9.492 0.609E-05
-9.491 0.595E-05
-9.490 0.581E-05
-9.489 0.570E-05
-9.488 0.559E-05
-9.487 0.548E-05
-9.486 0.535E-05
-9.485 0.524E-05
-9.484 0.513E-05
-9.483 0.504E-05
-9.482 0.493E-05
-9.481 0.483E-05
-9.480 0.472E-05
-9.479 0.463E-05
-9.478 0.453E-05
-9.477 0.444E-05
-9.476 0.434E-05
-9.475 0.425E-05
-9.474 0.416E-05
-9.473 0.408E-05
-9.472 0.397E-05
-9.471 0.389E-05
-9.470 0.381E-05
-9.469 0.373E-05
-9.468 0.367E-05
-9.467 0.359E-05
-9.466 0.351E-05
-9.465 0.343E-05
-9.464 0.337E-05
-9.463 0.329E-05
-9.462 0.321E-05
-9.461 0.315E-05
-9.460 0.307E-05
-9.459 0.302E-05
-9.458 0.296E-05
-9.457 0.288E-05
-9.456 0.282E-05
-9.455 0.277E-05
-9.454 0.271E-05
-9.453 0.265E-05
-9.452 0.259E-05
-9.451 0.254E-05
-9.450 0.248E-05
-9.449 0.243E-05
-9.448 0.237E-05
-9.447 0.232E-05
-9.446 0.227E-05
-9.445 0.222E-05
-9.444 0.217E-05
-9.443 0.213E-05
-9.442 0.208E-05
-9.441 0.203E-05
-9.440 0.199E-05
-9.439 0.195E-05
-9.438 0.190E-05
-9.437 0.186E-05
-9.436 0.182E-05
-9.435 0.178E-05
-9.434 0.174E-05
-9.433 0.170E-05
-9.432 0.167E-05
-9.431 0.163E-05
-9.430 0.159E-05
-9.429 0.156E-05
-9.428 0.152E-05
-9.427 0.149E-05
-9.426 0.146E-05
-9.425 0.142E-05
-9.424 0.139E-05
-9.423 0.136E-05
-9.422 0.133E-05
-9.421 0.130E-05
-9.420 0.127E-05
-9.419 0.124E-05
-9.418 0.122E-05
-9.417 0.119E-05
-9.416 0.116E-05
-9.415 0.113E-05
-9.414 0.111E-05
-9.413 0.108E-05
-9.412 0.106E-05
-9.411 0.104E-05
-9.410 0.101E-05
-9.409 0.989E-06
-9.408 0.968E-06
-9.407 0.946E-06
-9.406 0.923E-06
-9.405 0.903E-06
-9.404 0.882E-06
-9.403 0.863E-06
-9.402 0.844E-06
-9.401 0.824E-06
-9.400 0.805E-06
-9.399 0.787E-06
-9.398 0.768E-06
-9.397 0.750E-06
-9.396 0.734E-06
-9.395 0.717E-06
-9.394 0.699E-06
-9.393 0.685E-06
-9.392 0.668E-06
-9.391 0.652E-06
-9.390 0.638E-06
-9.389 0.622E-06
-9.388 0.609E-06
-9.387 0.595E-06
-9.386 0.580E-06
-9.385 0.567E-06
-9.384 0.553E-06
-9.383 0.540E-06
-9.382 0.528E-06
-9.381 0.515E-06
-9.380 0.504E-06
-9.379 0.493E-06
-9.378 0.480E-06
-9.377 0.469E-06
-9.376 0.458E-06
-9.375 0.447E-06
-9.374 0.438E-06
-9.373 0.428E-06
-9.372 0.416E-06
-9.371 0.405E-06
-9.370 0.397E-06
-9.369 0.388E-06
-9.368 0.378E-06
-9.367 0.370E-06
-9.366 0.361E-06
-9.365 0.353E-06
-9.364 0.345E-06
-9.363 0.337E-06
-9.362 0.328E-06
-9.361 0.320E-06
-9.360 0.312E-06
-9.359 0.304E-06
-9.358 0.298E-06
-9.357 0.290E-06
-9.356 0.282E-06
-9.355 0.277E-06
-9.354 0.270E-06
-9.353 0.263E-06
-9.352 0.257E-06
-9.351 0.251E-06
-9.350 0.245E-06
-9.349 0.239E-06
-9.348 0.233E-06
-9.347 0.228E-06
-9.346 0.222E-06
-9.345 0.217E-06
-9.344 0.211E-06
-9.343 0.206E-06
-9.342 0.201E-06
-9.341 0.196E-06
-9.340 0.191E-06
-9.339 0.187E-06
-9.338 0.182E-06
-9.337 0.178E-06
-9.336 0.173E-06
-9.335 0.169E-06
-9.334 0.165E-06
-9.333 0.161E-06
-9.332 0.157E-06
-9.331 0.153E-06
-9.330 0.149E-06
-9.329 0.146E-06
-9.328 0.142E-06
-9.327 0.139E-06
-9.326 0.135E-06
-9.325 0.132E-06
-9.324 0.129E-06
-9.323 0.125E-06
-9.322 0.122E-06
-9.321 0.119E-06
-9.320 0.116E-06
-9.319 0.113E-06
-9.318 0.111E-06
-9.317 0.108E-06
-9.316 0.105E-06
-9.315 0.102E-06
-9.314 0.100E-06
-9.313 0.975E-07
-9.312 0.950E-07
-9.311 0.925E-07
-9.310 0.903E-07
-9.309 0.879E-07
-9.308 0.857E-07
-9.307 0.835E-07
-9.306 0.816E-07
-9.305 0.794E-07
-9.304 0.775E-07
-9.303 0.755E-07
-9.302 0.736E-07
-9.301 0.717E-07
-9.300 0.698E-07
-9.299 0.682E-07
-9.298 0.663E-07
-9.297 0.647E-07
-9.296 0.630E-07
-9.295 0.614E-07
-9.294 0.600E-07
-9.293 0.583E-07
-9.292 0.569E-07
-9.291 0.553E-07
-9.290 0.539E-07
-9.289 0.526E-07
-9.288 0.512E-07
-9.287 0.499E-07
-9.286 0.487E-07
-9.285 0.474E-07
-9.284 0.463E-07
-9.283 0.449E-07
-9.282 0.438E-07
-9.281 0.427E-07
-9.280 0.416E-07
-9.279 0.405E-07
-9.278 0.394E-07
-9.277 0.383E-07
-9.276 0.375E-07
-9.275 0.364E-07
-9.274 0.356E-07
-9.273 0.345E-07
-9.272 0.337E-07
-9.271 0.328E-07
-9.270 0.320E-07
-9.269 0.312E-07
-9.268 0.304E-07
-9.267 0.295E-07
-9.266 0.287E-07
-9.265 0.279E-07
-9.264 0.272E-07
-9.263 0.265E-07
-9.262 0.258E-07
-9.261 0.251E-07
-9.260 0.245E-07
-9.259 0.238E-07
-9.258 0.232E-07
-9.257 0.226E-07
-9.256 0.220E-07
-9.255 0.214E-07
-9.254 0.208E-07
-9.253 0.203E-07
-9.252 0.197E-07
-9.251 0.192E-07
-9.250 0.187E-07
-9.249 0.182E-07
-9.248 0.177E-07
-9.247 0.172E-07
-9.246 0.168E-07
-9.245 0.163E-07
-9.244 0.159E-07
-9.243 0.155E-07
-9.242 0.150E-07
-9.241 0.146E-07
-9.240 0.142E-07
-9.239 0.139E-07
-9.238 0.135E-07
-9.237 0.131E-07
-9.236 0.128E-07
-9.235 0.124E-07
-9.234 0.121E-07
-9.233 0.118E-07
-9.232 0.114E-07
-9.231 0.111E-07
-9.230 0.108E-07
-9.229 0.105E-07
-9.228 0.102E-07
-9.227 0.997E-08
-9.226 0.969E-08
-9.225 0.944E-08
-9.224 0.917E-08
-9.223 0.892E-08
-9.222 0.868E-08
-9.221 0.843E-08
-9.220 0.821E-08
-9.219 0.799E-08
-9.218 0.778E-08
-9.217 0.755E-08
-9.216 0.733E-08
-9.215 0.714E-08
-9.214 0.695E-08
-9.213 0.676E-08
-9.212 0.657E-08
-9.211 0.638E-08
-9.210 0.622E-08
-9.209 0.605E-08
-9.208 0.586E-08
-9.207 0.571E-08
-9.206 0.555E-08
-9.205 0.539E-08
-9.204 0.525E-08
-9.203 0.509E-08
-9.202 0.496E-08
-9.201 0.482E-08
-9.200 0.468E-08
-9.199 0.455E-08
-9.198 0.444E-08
-9.197 0.430E-08
-9.196 0.418E-08
-9.195 0.407E-08
-9.194 0.394E-08
-9.193 0.383E-08
-9.192 0.372E-08
-9.191 0.364E-08
-9.190 0.353E-08
-9.189 0.342E-08
-9.188 0.334E-08
-9.187 0.323E-08
-9.186 0.315E-08
-9.185 0.306E-08
-9.184 0.296E-08
-9.183 0.288E-08
-9.182 0.279E-08
-9.181 0.272E-08
-9.180 0.264E-08
-9.179 0.257E-08
-9.178 0.250E-08
-9.177 0.243E-08
-9.176 0.236E-08
-9.175 0.229E-08
-9.174 0.222E-08
-9.173 0.216E-08
-9.172 0.210E-08
-9.171 0.204E-08
-9.170 0.198E-08
-9.169 0.192E-08
-9.168 0.187E-08
-9.167 0.181E-08
-9.166 0.176E-08
-9.165 0.171E-08
-9.164 0.166E-08
-9.163 0.161E-08
-9.162 0.157E-08
-9.161 0.152E-08
-9.160 0.148E-08
-9.159 0.143E-08
-9.158 0.139E-08
-9.157 0.135E-08
-9.156 0.131E-08
-9.155 0.128E-08
-9.154 0.124E-08
-9.153 0.120E-08
-9.152 0.117E-08
-9.151 0.113E-08
-9.150 0.110E-08
-9.149 0.107E-08
-9.148 0.104E-08
-9.147 0.101E-08
-9.146 0.977E-09
-9.145 0.950E-09
-9.144 0.919E-09
-9.143 0.894E-09
-9.142 0.867E-09
-9.141 0.843E-09
-9.140 0.818E-09
-9.139 0.794E-09
-9.138 0.769E-09
-9.137 0.747E-09
-9.136 0.725E-09
-9.135 0.703E-09
-9.134 0.682E-09
-9.133 0.662E-09
-9.132 0.643E-09
-9.131 0.624E-09
-9.130 0.605E-09
-9.129 0.588E-09
-9.128 0.569E-09
-9.127 0.552E-09
-9.126 0.536E-09
-9.125 0.520E-09
-9.124 0.506E-09
-9.123 0.490E-09
-9.122 0.476E-09
-9.121 0.460E-09
-9.120 0.447E-09
-9.119 0.435E-09
-9.118 0.421E-09
-9.117 0.407E-09
-9.116 0.396E-09
-9.115 0.383E-09
-9.114 0.372E-09
-9.113 0.361E-09
-9.112 0.350E-09
-9.111 0.339E-09
-9.110 0.329E-09
-9.109 0.320E-09
-9.108 0.309E-09
-9.107 0.301E-09
-9.106 0.290E-09
-9.105 0.282E-09
-9.104 0.274E-09
-9.103 0.266E-09
-9.102 0.257E-09
-9.101 0.250E-09
-9.100 0.242E-09
-9.099 0.235E-09
-9.098 0.228E-09
-9.097 0.220E-09
-9.096 0.214E-09
-9.095 0.207E-09
-9.094 0.201E-09
-9.093 0.195E-09
-9.092 0.189E-09
-9.091 0.183E-09
-9.090 0.178E-09
-9.089 0.172E-09
-9.088 0.167E-09
-9.087 0.162E-09
-9.086 0.157E-09
-9.085 0.152E-09
-9.084 0.147E-09
-9.083 0.143E-09
-9.082 0.138E-09
-9.081 0.134E-09
-9.080 0.130E-09
-9.079 0.126E-09
-9.078 0.122E-09
-9.077 0.118E-09
-9.076 0.114E-09
-9.075 0.111E-09
-9.074 0.107E-09
-9.073 0.104E-09
-9.072 0.101E-09
-9.071 0.974E-10
-9.070 0.943E-10
-9.069 0.914E-10
-9.068 0.886E-10
-9.067 0.859E-10
-9.066 0.832E-10
-9.065 0.807E-10
-9.064 0.780E-10
-9.063 0.755E-10
-9.062 0.733E-10
-9.061 0.708E-10
-9.060 0.687E-10
-9.059 0.665E-10
-9.058 0.645E-10
-9.057 0.624E-10
-9.056 0.605E-10
-9.055 0.585E-10
-9.054 0.566E-10
-9.053 0.549E-10
-9.052 0.531E-10
-9.051 0.514E-10
-9.050 0.498E-10
-9.049 0.482E-10
-9.048 0.468E-10
-9.047 0.452E-10
-9.046 0.438E-10
-9.045 0.423E-10
-9.044 0.410E-10
-9.043 0.396E-10
-9.042 0.385E-10
-9.041 0.372E-10
-9.040 0.361E-10
-9.039 0.350E-10
-9.038 0.339E-10
-9.037 0.328E-10
-9.036 0.317E-10
-9.035 0.306E-10
-9.034 0.296E-10
-9.033 0.287E-10
-9.032 0.279E-10
-9.031 0.269E-10
-9.030 0.260E-10
-9.029 0.252E-10
-9.028 0.243E-10
-9.027 0.235E-10
-9.026 0.227E-10
-9.025 0.220E-10
-9.024 0.213E-10
-9.023 0.206E-10
-9.022 0.199E-10
-9.021 0.193E-10
-9.020 0.186E-10
-9.019 0.180E-10
-9.018 0.175E-10
-9.017 0.169E-10
-9.016 0.163E-10
-9.015 0.158E-10
-9.014 0.153E-10
-9.013 0.148E-10
-9.012 0.143E-10
-9.011 0.138E-10
-9.010 0.134E-10
-9.009 0.130E-10
-9.008 0.125E-10
-9.007 0.121E-10
-9.006 0.117E-10
-9.005 0.113E-10
-9.004 0.110E-10
-9.003 0.106E-10
-9.002 0.102E-10
-9.001 0.993E-11
-9.000 0.960E-11
-8.999 0.927E-11
-8.998 0.897E-11
-8.997 0.867E-11
-8.996 0.839E-11
-8.995 0.810E-11
-8.994 0.785E-11
-8.993 0.757E-11
-8.992 0.732E-11
-8.991 0.708E-11
-8.990 0.684E-11
-8.989 0.662E-11
-8.988 0.640E-11
-8.987 0.619E-11
-8.986 0.598E-11
-8.985 0.577E-11
-8.984 0.558E-11
-8.983 0.541E-11
-8.982 0.522E-11
-8.981 0.506E-11
-8.980 0.487E-11
-8.979 0.471E-11
-8.978 0.457E-11
-8.977 0.441E-11
-8.976 0.426E-11
-8.975 0.410E-11
-8.974 0.396E-11
-8.973 0.383E-11
-8.972 0.372E-11
-8.971 0.358E-11
-8.970 0.347E-11
-8.969 0.334E-11
-8.968 0.323E-11
-8.967 0.312E-11
-8.966 0.301E-11
-8.965 0.292E-11
-8.964 0.282E-11
-8.963 0.272E-11
-8.962 0.263E-11
-8.961 0.254E-11
-8.960 0.246E-11
-8.959 0.237E-11
-8.958 0.229E-11
-8.957 0.221E-11
-8.956 0.214E-11
-8.955 0.206E-11
-8.954 0.199E-11
-8.953 0.193E-11
-8.952 0.175E-11
-8.951 0.169E-11
-8.950 0.163E-11
-8.949 0.157E-11
-8.948 0.152E-11
-8.947 0.147E-11
-8.946 0.142E-11
-8.945 0.137E-11
-8.944 0.132E-11
-8.943 0.128E-11
-8.942 0.123E-11
-8.941 0.119E-11
-8.940 0.115E-11
-8.939 0.111E-11
-8.938 0.107E-11
-8.937 0.104E-11
-8.936 0.100E-11
-8.935 0.965E-12
-8.934 0.931E-12
-8.933 0.899E-12
-8.932 0.869E-12
-8.931 0.839E-12
-8.930 0.809E-12
-8.929 0.781E-12
-8.928 0.754E-12
-8.927 0.729E-12
-8.926 0.702E-12
-8.925 0.678E-12
-8.924 0.656E-12
-8.923 0.632E-12
-8.922 0.610E-12
-8.921 0.589E-12
-8.920 0.568E-12
-8.919 0.549E-12
-8.918 0.530E-12
-8.917 0.511E-12
-8.916 0.492E-12
-8.915 0.476E-12
-8.914 0.459E-12
-8.913 0.443E-12
-8.912 0.426E-12
-8.911 0.412E-12
-8.910 0.398E-12
-8.909 0.385E-12
-8.908 0.371E-12
-8.907 0.358E-12
-8.906 0.344E-12
-8.905 0.333E-12
-8.904 0.320E-12
-8.903 0.190E-12
-8.902 0.183E-12
-8.901 0.177E-12
-8.900 0.171E-12
-8.899 0.165E-12
-8.898 0.159E-12
-8.897 0.153E-12
-8.896 0.148E-12
-8.895 0.143E-12
-8.894 0.138E-12
-8.893 0.133E-12
-8.892 0.128E-12
-8.891 0.124E-12
-8.890 0.119E-12
-8.889 0.115E-12
-8.888 0.111E-12
-8.887 0.107E-12
-8.886 0.104E-12
-8.885 0.998E-13
-8.884 0.962E-13
-8.883 0.929E-13
-8.882 0.897E-13
-8.881 0.865E-13
-8.880 0.835E-13
-8.879 0.804E-13
-8.878 0.776E-13
-8.877 0.747E-13
-8.876 0.722E-13
-8.875 0.696E-13
-8.874 0.671E-13
-8.873 0.647E-13
-8.872 0.624E-13
-8.871 0.602E-13
-8.870 0.580E-13
-8.869 0.559E-13
-8.868 0.540E-13
-8.867 0.521E-13
-8.866 0.502E-13
-8.865 0.485E-13
-8.864 0.467E-13
-8.863 0.449E-13
-8.862 0.433E-13
-8.861 0.417E-13
-8.860 0.403E-13
-8.859 0.389E-13
-8.858 0.374E-13
-8.857 0.360E-13
-8.856 0.349E-13
-8.855 0.335E-13
-8.854 0.324E-13
-8.853 0.000E+00
-8.852 0.000E+00
-8.851 0.000E+00
-8.850 0.000E+00
-8.849 0.000E+00
-8.848 0.000E+00
-8.847 0.000E+00
-8.846 0.000E+00
-8.845 0.000E+00
-8.844 0.000E+00
-8.843 0.000E+00
-8.842 0.000E+00
-8.841 0.000E+00
-8.840 0.000E+00
-8.839 0.000E+00
-8.838 0.000E+00
-8.837 0.000E+00
-8.836 0.000E+00
-8.835 0.000E+00
-8.834 0.000E+00
-8.833 0.000E+00
-8.832 0.000E+00
-8.831 0.000E+00
-8.830 0.000E+00
-8.829 0.000E+00
-8.828 0.000E+00
-8.827 0.000E+00
-8.826 0.000E+00
