E(eV) dos(E)  pdos(E)
-10.000 0.268E-10 0.268E-10
-9.999 0.278E-10 0.277E-10
-9.998 0.287E-10 0.287E-10
-9.997 0.298E-10 0.297E-10
-9.996 0.308E-10 0.308E-10
-9.995 0.319E-10 0.319E-10
-9.994 0.331E-10 0.330E-10
-9.993 0.342E-10 0.342E-10
-9.992 0.354E-10 0.354E-10
-9.991 0.367E-10 0.367E-10
-9.990 0.380E-10 0.380E-10
-9.989 0.393E-10 0.393E-10
-9.988 0.407E-10 0.407E-10
-9.987 0.422E-10 0.421E-10
-9.986 0.437E-10 0.436E-10
-9.985 0.452E-10 0.451E-10
-9.984 0.484E-10 0.483E-10
-9.983 0.501E-10 0.500E-10
-9.982 0.518E-10 0.518E-10
-9.981 0.537E-10 0.536E-10
-9.980 0.556E-10 0.555E-10
-9.979 0.575E-10 0.574E-10
-9.978 0.595E-10 0.595E-10
-9.977 0.616E-10 0.615E-10
-9.976 0.638E-10 0.637E-10
-9.975 0.660E-10 0.659E-10
-9.974 0.683E-10 0.682E-10
-9.973 0.707E-10 0.706E-10
-9.972 0.732E-10 0.731E-10
-9.971 0.758E-10 0.757E-10
-9.970 0.784E-10 0.783E-10
-9.969 0.811E-10 0.810E-10
-9.968 0.844E-10 0.843E-10
-9.967 0.873E-10 0.872E-10
-9.966 0.904E-10 0.902E-10
-9.965 0.935E-10 0.934E-10
-9.964 0.968E-10 0.966E-10
-9.963 0.100E-09 0.100E-09
-9.962 0.104E-09 0.103E-09
-9.961 0.107E-09 0.107E-09
-9.960 0.111E-09 0.111E-09
-9.959 0.118E-09 0.118E-09
-9.958 0.122E-09 0.122E-09
-9.957 0.126E-09 0.126E-09
-9.956 0.131E-09 0.130E-09
-9.955 0.135E-09 0.135E-09
-9.954 0.140E-09 0.140E-09
-9.953 0.145E-09 0.145E-09
-9.952 0.150E-09 0.149E-09
-9.951 0.155E-09 0.155E-09
-9.950 0.160E-09 0.160E-09
-9.949 0.166E-09 0.165E-09
-9.948 0.171E-09 0.171E-09
-9.947 0.177E-09 0.177E-09
-9.946 0.183E-09 0.183E-09
-9.945 0.190E-09 0.189E-09
-9.944 0.196E-09 0.196E-09
-9.943 0.205E-09 0.204E-09
-9.942 0.212E-09 0.211E-09
-9.941 0.219E-09 0.219E-09
-9.940 0.226E-09 0.226E-09
-9.939 0.234E-09 0.234E-09
-9.938 0.242E-09 0.242E-09
-9.937 0.250E-09 0.250E-09
-9.936 0.259E-09 0.258E-09
-9.935 0.268E-09 0.267E-09
-9.934 0.277E-09 0.276E-09
-9.933 0.286E-09 0.286E-09
-9.932 0.296E-09 0.296E-09
-9.931 0.306E-09 0.306E-09
-9.930 0.316E-09 0.316E-09
-9.929 0.327E-09 0.327E-09
-9.928 0.338E-09 0.338E-09
-9.927 0.350E-09 0.349E-09
-9.926 0.361E-09 0.361E-09
-9.925 0.374E-09 0.373E-09
-9.924 0.386E-09 0.386E-09
-9.923 0.399E-09 0.399E-09
-9.922 0.413E-09 0.412E-09
-9.921 0.427E-09 0.426E-09
-9.920 0.443E-09 0.442E-09
-9.919 0.458E-09 0.457E-09
-9.918 0.473E-09 0.472E-09
-9.917 0.489E-09 0.488E-09
-9.916 0.505E-09 0.505E-09
-9.915 0.522E-09 0.522E-09
-9.914 0.540E-09 0.539E-09
-9.913 0.558E-09 0.557E-09
-9.912 0.578E-09 0.577E-09
-9.911 0.598E-09 0.597E-09
-9.910 0.618E-09 0.617E-09
-9.909 0.638E-09 0.637E-09
-9.908 0.659E-09 0.659E-09
-9.907 0.681E-09 0.681E-09
-9.906 0.704E-09 0.703E-09
-9.905 0.729E-09 0.728E-09
-9.904 0.753E-09 0.753E-09
-9.903 0.779E-09 0.778E-09
-9.902 0.804E-09 0.803E-09
-9.901 0.831E-09 0.830E-09
-9.900 0.862E-09 0.861E-09
-9.899 0.890E-09 0.889E-09
-9.898 0.920E-09 0.919E-09
-9.897 0.950E-09 0.949E-09
-9.896 0.982E-09 0.981E-09
-9.895 0.101E-08 0.101E-08
-9.894 0.105E-08 0.105E-08
-9.893 0.109E-08 0.109E-08
-9.892 0.113E-08 0.112E-08
-9.891 0.116E-08 0.116E-08
-9.890 0.121E-08 0.120E-08
-9.889 0.125E-08 0.124E-08
-9.888 0.129E-08 0.128E-08
-9.887 0.133E-08 0.133E-08
-9.886 0.137E-08 0.137E-08
-9.885 0.142E-08 0.142E-08
-9.884 0.147E-08 0.147E-08
-9.883 0.152E-08 0.152E-08
-9.882 0.157E-08 0.157E-08
-9.881 0.163E-08 0.162E-08
-9.880 0.168E-08 0.168E-08
-9.879 0.174E-08 0.174E-08
-9.878 0.180E-08 0.180E-08
-9.877 0.186E-08 0.186E-08
-9.876 0.192E-08 0.192E-08
-9.875 0.199E-08 0.198E-08
-9.874 0.206E-08 0.205E-08
-9.873 0.213E-08 0.212E-08
-9.872 0.220E-08 0.219E-08
-9.871 0.227E-08 0.226E-08
-9.870 0.235E-08 0.234E-08
-9.869 0.242E-08 0.242E-08
-9.868 0.250E-08 0.250E-08
-9.867 0.258E-08 0.258E-08
-9.866 0.267E-08 0.266E-08
-9.865 0.275E-08 0.275E-08
-9.864 0.284E-08 0.284E-08
-9.863 0.294E-08 0.294E-08
-9.862 0.304E-08 0.304E-08
-9.861 0.314E-08 0.314E-08
-9.860 0.324E-08 0.324E-08
-9.859 0.335E-08 0.334E-08
-9.858 0.345E-08 0.345E-08
-9.857 0.357E-08 0.356E-08
-9.856 0.369E-08 0.368E-08
-9.855 0.380E-08 0.380E-08
-9.854 0.393E-08 0.392E-08
-9.853 0.405E-08 0.405E-08
-9.852 0.418E-08 0.418E-08
-9.851 0.432E-08 0.431E-08
-9.850 0.446E-08 0.446E-08
-9.849 0.461E-08 0.460E-08
-9.848 0.475E-08 0.475E-08
-9.847 0.491E-08 0.490E-08
-9.846 0.507E-08 0.506E-08
-9.845 0.523E-08 0.523E-08
-9.844 0.540E-08 0.540E-08
-9.843 0.558E-08 0.557E-08
-9.842 0.576E-08 0.575E-08
-9.841 0.594E-08 0.594E-08
-9.840 0.613E-08 0.613E-08
-9.839 0.633E-08 0.633E-08
-9.838 0.654E-08 0.653E-08
-9.837 0.674E-08 0.674E-08
-9.836 0.696E-08 0.695E-08
-9.835 0.718E-08 0.718E-08
-9.834 0.741E-08 0.740E-08
-9.833 0.765E-08 0.764E-08
-9.832 0.789E-08 0.788E-08
-9.831 0.815E-08 0.814E-08
-9.830 0.841E-08 0.840E-08
-9.829 0.868E-08 0.867E-08
-9.828 0.896E-08 0.895E-08
-9.827 0.925E-08 0.924E-08
-9.826 0.954E-08 0.953E-08
-9.825 0.985E-08 0.984E-08
-9.824 0.102E-07 0.101E-07
-9.823 0.105E-07 0.105E-07
-9.822 0.108E-07 0.108E-07
-9.821 0.112E-07 0.111E-07
-9.820 0.115E-07 0.115E-07
-9.819 0.119E-07 0.119E-07
-9.818 0.122E-07 0.122E-07
-9.817 0.126E-07 0.126E-07
-9.816 0.130E-07 0.130E-07
-9.815 0.134E-07 0.134E-07
-9.814 0.139E-07 0.138E-07
-9.813 0.143E-07 0.143E-07
-9.812 0.147E-07 0.147E-07
-9.811 0.152E-07 0.152E-07
-9.810 0.157E-07 0.156E-07
-9.809 0.161E-07 0.161E-07
-9.808 0.166E-07 0.166E-07
-9.807 0.172E-07 0.171E-07
-9.806 0.177E-07 0.177E-07
-9.805 0.182E-07 0.182E-07
-9.804 0.188E-07 0.188E-07
-9.803 0.194E-07 0.194E-07
-9.802 0.200E-07 0.200E-07
-9.801 0.206E-07 0.206E-07
-9.800 0.212E-07 0.212E-07
-9.799 0.219E-07 0.219E-07
-9.798 0.226E-07 0.225E-07
-9.797 0.233E-07 0.232E-07
-9.796 0.240E-07 0.240E-07
-9.795 0.247E-07 0.247E-07
-9.794 0.255E-07 0.255E-07
-9.793 0.263E-07 0.262E-07
-9.792 0.271E-07 0.270E-07
-9.791 0.279E-07 0.279E-07
-9.790 0.288E-07 0.287E-07
-9.789 0.296E-07 0.296E-07
-9.788 0.305E-07 0.305E-07
-9.787 0.315E-07 0.314E-07
-9.786 0.324E-07 0.324E-07
-9.785 0.334E-07 0.334E-07
-9.784 0.344E-07 0.344E-07
-9.783 0.355E-07 0.354E-07
-9.782 0.366E-07 0.365E-07
-9.781 0.377E-07 0.376E-07
-9.780 0.388E-07 0.388E-07
-9.779 0.400E-07 0.399E-07
-9.778 0.412E-07 0.412E-07
-9.777 0.425E-07 0.424E-07
-9.776 0.437E-07 0.437E-07
-9.775 0.451E-07 0.450E-07
-9.774 0.464E-07 0.464E-07
-9.773 0.478E-07 0.478E-07
-9.772 0.493E-07 0.492E-07
-9.771 0.507E-07 0.507E-07
-9.770 0.523E-07 0.522E-07
-9.769 0.538E-07 0.538E-07
-9.768 0.555E-07 0.554E-07
-9.767 0.571E-07 0.571E-07
-9.766 0.588E-07 0.588E-07
-9.765 0.606E-07 0.605E-07
-9.764 0.624E-07 0.624E-07
-9.763 0.643E-07 0.642E-07
-9.762 0.662E-07 0.661E-07
-9.761 0.682E-07 0.681E-07
-9.760 0.702E-07 0.701E-07
-9.759 0.723E-07 0.722E-07
-9.758 0.745E-07 0.744E-07
-9.757 0.767E-07 0.766E-07
-9.756 0.790E-07 0.789E-07
-9.755 0.813E-07 0.812E-07
-9.754 0.837E-07 0.836E-07
-9.753 0.862E-07 0.861E-07
-9.752 0.888E-07 0.887E-07
-9.751 0.914E-07 0.913E-07
-9.750 0.941E-07 0.940E-07
-9.749 0.969E-07 0.968E-07
-9.748 0.998E-07 0.996E-07
-9.747 0.103E-06 0.103E-06
-9.746 0.106E-06 0.106E-06
-9.745 0.109E-06 0.109E-06
-9.744 0.112E-06 0.112E-06
-9.743 0.115E-06 0.115E-06
-9.742 0.119E-06 0.119E-06
-9.741 0.122E-06 0.122E-06
-9.740 0.126E-06 0.126E-06
-9.739 0.130E-06 0.129E-06
-9.738 0.133E-06 0.133E-06
-9.737 0.137E-06 0.137E-06
-9.736 0.141E-06 0.141E-06
-9.735 0.145E-06 0.145E-06
-9.734 0.150E-06 0.149E-06
-9.733 0.154E-06 0.154E-06
-9.732 0.158E-06 0.158E-06
-9.731 0.163E-06 0.163E-06
-9.730 0.168E-06 0.168E-06
-9.729 0.173E-06 0.173E-06
-9.728 0.178E-06 0.178E-06
-9.727 0.183E-06 0.183E-06
-9.726 0.188E-06 0.188E-06
-9.725 0.194E-06 0.193E-06
-9.724 0.199E-06 0.199E-06
-9.723 0.205E-06 0.205E-06
-9.722 0.211E-06 0.211E-06
-9.721 0.217E-06 0.217E-06
-9.720 0.223E-06 0.223E-06
-9.719 0.230E-06 0.229E-06
-9.718 0.236E-06 0.236E-06
-9.717 0.243E-06 0.243E-06
-9.716 0.250E-06 0.250E-06
-9.715 0.257E-06 0.257E-06
-9.714 0.265E-06 0.264E-06
-9.713 0.272E-06 0.272E-06
-9.712 0.280E-06 0.280E-06
-9.711 0.288E-06 0.288E-06
-9.710 0.296E-06 0.296E-06
-9.709 0.305E-06 0.305E-06
-9.708 0.314E-06 0.313E-06
-9.707 0.323E-06 0.322E-06
-9.706 0.332E-06 0.331E-06
-9.705 0.341E-06 0.341E-06
-9.704 0.351E-06 0.351E-06
-9.703 0.361E-06 0.361E-06
-9.702 0.371E-06 0.371E-06
-9.701 0.382E-06 0.381E-06
-9.700 0.393E-06 0.392E-06
-9.699 0.404E-06 0.403E-06
-9.698 0.415E-06 0.415E-06
-9.697 0.427E-06 0.426E-06
-9.696 0.439E-06 0.438E-06
-9.695 0.451E-06 0.451E-06
-9.694 0.464E-06 0.464E-06
-9.693 0.477E-06 0.477E-06
-9.692 0.491E-06 0.490E-06
-9.691 0.504E-06 0.504E-06
-9.690 0.519E-06 0.518E-06
-9.689 0.533E-06 0.533E-06
-9.688 0.548E-06 0.548E-06
-9.687 0.564E-06 0.563E-06
-9.686 0.579E-06 0.579E-06
-9.685 0.596E-06 0.595E-06
-9.684 0.612E-06 0.612E-06
-9.683 0.629E-06 0.629E-06
-9.682 0.647E-06 0.646E-06
-9.681 0.665E-06 0.664E-06
-9.680 0.683E-06 0.683E-06
-9.679 0.703E-06 0.702E-06
-9.678 0.722E-06 0.721E-06
-9.677 0.742E-06 0.741E-06
-9.676 0.763E-06 0.762E-06
-9.675 0.784E-06 0.783E-06
-9.674 0.806E-06 0.805E-06
-9.673 0.828E-06 0.827E-06
-9.672 0.851E-06 0.850E-06
-9.671 0.875E-06 0.874E-06
-9.670 0.899E-06 0.898E-06
-9.669 0.924E-06 0.923E-06
-9.668 0.949E-06 0.948E-06
-9.667 0.975E-06 0.974E-06
-9.666 0.100E-05 0.100E-05
-9.665 0.103E-05 0.103E-05
-9.664 0.106E-05 0.106E-05
-9.663 0.109E-05 0.109E-05
-9.662 0.112E-05 0.112E-05
-9.661 0.115E-05 0.115E-05
-9.660 0.118E-05 0.118E-05
-9.659 0.121E-05 0.121E-05
-9.658 0.124E-05 0.124E-05
-9.657 0.128E-05 0.128E-05
-9.656 0.131E-05 0.131E-05
-9.655 0.135E-05 0.135E-05
-9.654 0.139E-05 0.138E-05
-9.653 0.142E-05 0.142E-05
-9.652 0.146E-05 0.146E-05
-9.651 0.150E-05 0.150E-05
-9.650 0.154E-05 0.154E-05
-9.649 0.158E-05 0.158E-05
-9.648 0.163E-05 0.163E-05
-9.647 0.167E-05 0.167E-05
-9.646 0.172E-05 0.172E-05
-9.645 0.176E-05 0.176E-05
-9.644 0.181E-05 0.181E-05
-9.643 0.186E-05 0.186E-05
-9.642 0.191E-05 0.191E-05
-9.641 0.196E-05 0.196E-05
-9.640 0.201E-05 0.201E-05
-9.639 0.207E-05 0.207E-05
-9.638 0.212E-05 0.212E-05
-9.637 0.218E-05 0.218E-05
-9.636 0.224E-05 0.224E-05
-9.635 0.230E-05 0.230E-05
-9.634 0.236E-05 0.236E-05
-9.633 0.243E-05 0.242E-05
-9.632 0.249E-05 0.249E-05
-9.631 0.256E-05 0.255E-05
-9.630 0.262E-05 0.262E-05
-9.629 0.269E-05 0.269E-05
-9.628 0.277E-05 0.276E-05
-9.627 0.284E-05 0.284E-05
-9.626 0.292E-05 0.291E-05
-9.625 0.299E-05 0.299E-05
-9.624 0.307E-05 0.307E-05
-9.623 0.315E-05 0.315E-05
-9.622 0.324E-05 0.323E-05
-9.621 0.332E-05 0.332E-05
-9.620 0.341E-05 0.341E-05
-9.619 0.350E-05 0.350E-05
-9.618 0.359E-05 0.359E-05
-9.617 0.369E-05 0.369E-05
-9.616 0.379E-05 0.378E-05
-9.615 0.389E-05 0.388E-05
-9.614 0.399E-05 0.398E-05
-9.613 0.409E-05 0.409E-05
-9.612 0.420E-05 0.420E-05
-9.611 0.431E-05 0.431E-05
-9.610 0.442E-05 0.442E-05
-9.609 0.454E-05 0.454E-05
-9.608 0.466E-05 0.465E-05
-9.607 0.478E-05 0.478E-05
-9.606 0.491E-05 0.490E-05
-9.605 0.503E-05 0.503E-05
-9.604 0.517E-05 0.516E-05
-9.603 0.530E-05 0.529E-05
-9.602 0.544E-05 0.543E-05
-9.601 0.558E-05 0.557E-05
-9.600 0.572E-05 0.572E-05
-9.599 0.587E-05 0.587E-05
-9.598 0.603E-05 0.602E-05
-9.597 0.618E-05 0.618E-05
-9.596 0.634E-05 0.634E-05
-9.595 0.651E-05 0.650E-05
-9.594 0.667E-05 0.667E-05
-9.593 0.685E-05 0.684E-05
-9.592 0.702E-05 0.702E-05
-9.591 0.720E-05 0.720E-05
-9.590 0.739E-05 0.738E-05
-9.589 0.758E-05 0.757E-05
-9.588 0.777E-05 0.777E-05
-9.587 0.797E-05 0.797E-05
-9.586 0.818E-05 0.817E-05
-9.585 0.839E-05 0.838E-05
-9.584 0.860E-05 0.859E-05
-9.583 0.882E-05 0.881E-05
-9.582 0.905E-05 0.904E-05
-9.581 0.928E-05 0.927E-05
-9.580 0.952E-05 0.951E-05
-9.579 0.976E-05 0.975E-05
-9.578 0.100E-04 0.100E-04
-9.577 0.103E-04 0.103E-04
-9.576 0.105E-04 0.105E-04
-9.575 0.108E-04 0.108E-04
-9.574 0.111E-04 0.111E-04
-9.573 0.113E-04 0.113E-04
-9.572 0.116E-04 0.116E-04
-9.571 0.119E-04 0.119E-04
-9.570 0.122E-04 0.122E-04
-9.569 0.125E-04 0.125E-04
-9.568 0.129E-04 0.128E-04
-9.567 0.132E-04 0.132E-04
-9.566 0.135E-04 0.135E-04
-9.565 0.139E-04 0.138E-04
-9.564 0.142E-04 0.142E-04
-9.563 0.146E-04 0.145E-04
-9.562 0.149E-04 0.149E-04
-9.561 0.153E-04 0.153E-04
-9.560 0.157E-04 0.157E-04
-9.559 0.161E-04 0.161E-04
-9.558 0.165E-04 0.165E-04
-9.557 0.169E-04 0.169E-04
-9.556 0.173E-04 0.173E-04
-9.555 0.177E-04 0.177E-04
-9.554 0.182E-04 0.182E-04
-9.553 0.186E-04 0.186E-04
-9.552 0.191E-04 0.191E-04
-9.551 0.196E-04 0.196E-04
-9.550 0.201E-04 0.200E-04
-9.549 0.206E-04 0.205E-04
-9.548 0.211E-04 0.210E-04
-9.547 0.216E-04 0.216E-04
-9.546 0.221E-04 0.221E-04
-9.545 0.227E-04 0.226E-04
-9.544 0.232E-04 0.232E-04
-9.543 0.238E-04 0.238E-04
-9.542 0.244E-04 0.244E-04
-9.541 0.250E-04 0.250E-04
-9.540 0.256E-04 0.256E-04
-9.539 0.262E-04 0.262E-04
-9.538 0.269E-04 0.269E-04
-9.537 0.275E-04 0.275E-04
-9.536 0.282E-04 0.282E-04
-9.535 0.289E-04 0.289E-04
-9.534 0.296E-04 0.296E-04
-9.533 0.303E-04 0.303E-04
-9.532 0.311E-04 0.311E-04
-9.531 0.318E-04 0.318E-04
-9.530 0.326E-04 0.326E-04
-9.529 0.334E-04 0.334E-04
-9.528 0.342E-04 0.342E-04
-9.527 0.351E-04 0.350E-04
-9.526 0.359E-04 0.359E-04
-9.525 0.368E-04 0.367E-04
-9.524 0.377E-04 0.376E-04
-9.523 0.386E-04 0.385E-04
-9.522 0.395E-04 0.395E-04
-9.521 0.405E-04 0.404E-04
-9.520 0.414E-04 0.414E-04
-9.519 0.424E-04 0.424E-04
-9.518 0.435E-04 0.434E-04
-9.517 0.445E-04 0.445E-04
-9.516 0.456E-04 0.455E-04
-9.515 0.467E-04 0.466E-04
-9.514 0.478E-04 0.478E-04
-9.513 0.490E-04 0.489E-04
-9.512 0.501E-04 0.501E-04
-9.511 0.513E-04 0.513E-04
-9.510 0.526E-04 0.525E-04
-9.509 0.538E-04 0.538E-04
-9.508 0.551E-04 0.550E-04
-9.507 0.564E-04 0.564E-04
-9.506 0.578E-04 0.577E-04
-9.505 0.591E-04 0.591E-04
-9.504 0.605E-04 0.605E-04
-9.503 0.620E-04 0.619E-04
-9.502 0.635E-04 0.634E-04
-9.501 0.650E-04 0.649E-04
-9.500 0.665E-04 0.664E-04
-9.499 0.681E-04 0.680E-04
-9.498 0.697E-04 0.696E-04
-9.497 0.713E-04 0.713E-04
-9.496 0.730E-04 0.729E-04
-9.495 0.747E-04 0.747E-04
-9.494 0.765E-04 0.764E-04
-9.493 0.783E-04 0.782E-04
-9.492 0.801E-04 0.801E-04
-9.491 0.820E-04 0.820E-04
-9.490 0.840E-04 0.839E-04
-9.489 0.859E-04 0.858E-04
-9.488 0.879E-04 0.879E-04
-9.487 0.900E-04 0.899E-04
-9.486 0.921E-04 0.920E-04
-9.485 0.943E-04 0.942E-04
-9.484 0.965E-04 0.964E-04
-9.483 0.987E-04 0.986E-04
-9.482 0.101E-03 0.101E-03
-9.481 0.103E-03 0.103E-03
-9.480 0.106E-03 0.106E-03
-9.479 0.108E-03 0.108E-03
-9.478 0.111E-03 0.111E-03
-9.477 0.113E-03 0.113E-03
-9.476 0.116E-03 0.116E-03
-9.475 0.119E-03 0.118E-03
-9.474 0.121E-03 0.121E-03
-9.473 0.124E-03 0.124E-03
-9.472 0.127E-03 0.127E-03
-9.471 0.130E-03 0.130E-03
-9.470 0.133E-03 0.133E-03
-9.469 0.136E-03 0.136E-03
-9.468 0.139E-03 0.139E-03
-9.467 0.142E-03 0.142E-03
-9.466 0.146E-03 0.145E-03
-9.465 0.149E-03 0.149E-03
-9.464 0.152E-03 0.152E-03
-9.463 0.156E-03 0.156E-03
-9.462 0.159E-03 0.159E-03
-9.461 0.163E-03 0.163E-03
-9.460 0.167E-03 0.167E-03
-9.459 0.171E-03 0.170E-03
-9.458 0.174E-03 0.174E-03
-9.457 0.178E-03 0.178E-03
-9.456 0.182E-03 0.182E-03
-9.455 0.187E-03 0.186E-03
-9.454 0.191E-03 0.191E-03
-9.453 0.195E-03 0.195E-03
-9.452 0.200E-03 0.199E-03
-9.451 0.204E-03 0.204E-03
-9.450 0.209E-03 0.209E-03
-9.449 0.213E-03 0.213E-03
-9.448 0.218E-03 0.218E-03
-9.447 0.223E-03 0.223E-03
-9.446 0.228E-03 0.228E-03
-9.445 0.233E-03 0.233E-03
-9.444 0.239E-03 0.238E-03
-9.443 0.244E-03 0.244E-03
-9.442 0.249E-03 0.249E-03
-9.441 0.255E-03 0.255E-03
-9.440 0.261E-03 0.260E-03
-9.439 0.266E-03 0.266E-03
-9.438 0.272E-03 0.272E-03
-9.437 0.278E-03 0.278E-03
-9.436 0.285E-03 0.284E-03
-9.435 0.291E-03 0.291E-03
-9.434 0.298E-03 0.297E-03
-9.433 0.304E-03 0.304E-03
-9.432 0.311E-03 0.311E-03
-9.431 0.318E-03 0.317E-03
-9.430 0.325E-03 0.325E-03
-9.429 0.332E-03 0.332E-03
-9.428 0.339E-03 0.339E-03
-9.427 0.347E-03 0.347E-03
-9.426 0.355E-03 0.354E-03
-9.425 0.362E-03 0.362E-03
-9.424 0.370E-03 0.370E-03
-9.423 0.378E-03 0.378E-03
-9.422 0.387E-03 0.386E-03
-9.421 0.395E-03 0.395E-03
-9.420 0.404E-03 0.404E-03
-9.419 0.413E-03 0.412E-03
-9.418 0.422E-03 0.421E-03
-9.417 0.431E-03 0.431E-03
-9.416 0.440E-03 0.440E-03
-9.415 0.450E-03 0.450E-03
-9.414 0.460E-03 0.460E-03
-9.413 0.470E-03 0.470E-03
-9.412 0.480E-03 0.480E-03
-9.411 0.491E-03 0.490E-03
-9.410 0.501E-03 0.501E-03
-9.409 0.512E-03 0.512E-03
-9.408 0.523E-03 0.523E-03
-9.407 0.535E-03 0.534E-03
-9.406 0.546E-03 0.546E-03
-9.405 0.558E-03 0.557E-03
-9.404 0.570E-03 0.569E-03
-9.403 0.582E-03 0.582E-03
-9.402 0.595E-03 0.594E-03
-9.401 0.608E-03 0.607E-03
-9.400 0.621E-03 0.620E-03
-9.399 0.634E-03 0.633E-03
-9.398 0.648E-03 0.647E-03
-9.397 0.661E-03 0.661E-03
-9.396 0.676E-03 0.675E-03
-9.395 0.690E-03 0.690E-03
-9.394 0.705E-03 0.704E-03
-9.393 0.720E-03 0.719E-03
-9.392 0.735E-03 0.735E-03
-9.391 0.751E-03 0.750E-03
-9.390 0.767E-03 0.766E-03
-9.389 0.783E-03 0.783E-03
-9.388 0.800E-03 0.799E-03
-9.387 0.817E-03 0.816E-03
-9.386 0.834E-03 0.833E-03
-9.385 0.852E-03 0.851E-03
-9.384 0.870E-03 0.869E-03
-9.383 0.888E-03 0.887E-03
-9.382 0.907E-03 0.906E-03
-9.381 0.926E-03 0.925E-03
-9.380 0.946E-03 0.945E-03
-9.379 0.966E-03 0.965E-03
-9.378 0.986E-03 0.985E-03
-9.377 0.101E-02 0.101E-02
-9.376 0.103E-02 0.103E-02
-9.375 0.105E-02 0.105E-02
-9.374 0.107E-02 0.107E-02
-9.373 0.109E-02 0.109E-02
-9.372 0.112E-02 0.112E-02
-9.371 0.114E-02 0.114E-02
-9.370 0.116E-02 0.116E-02
-9.369 0.119E-02 0.119E-02
-9.368 0.121E-02 0.121E-02
-9.367 0.124E-02 0.124E-02
-9.366 0.126E-02 0.126E-02
-9.365 0.129E-02 0.129E-02
-9.364 0.132E-02 0.132E-02
-9.363 0.134E-02 0.134E-02
-9.362 0.137E-02 0.137E-02
-9.361 0.140E-02 0.140E-02
-9.360 0.143E-02 0.143E-02
-9.359 0.146E-02 0.146E-02
-9.358 0.149E-02 0.149E-02
-9.357 0.152E-02 0.152E-02
-9.356 0.155E-02 0.155E-02
-9.355 0.158E-02 0.158E-02
-9.354 0.161E-02 0.161E-02
-9.353 0.165E-02 0.165E-02
-9.352 0.168E-02 0.168E-02
-9.351 0.172E-02 0.171E-02
-9.350 0.175E-02 0.175E-02
-9.349 0.179E-02 0.178E-02
-9.348 0.182E-02 0.182E-02
-9.347 0.186E-02 0.186E-02
-9.346 0.190E-02 0.190E-02
-9.345 0.194E-02 0.193E-02
-9.344 0.198E-02 0.197E-02
-9.343 0.202E-02 0.201E-02
-9.342 0.206E-02 0.205E-02
-9.341 0.210E-02 0.210E-02
-9.340 0.214E-02 0.214E-02
-9.339 0.218E-02 0.218E-02
-9.338 0.223E-02 0.223E-02
-9.337 0.227E-02 0.227E-02
-9.336 0.232E-02 0.232E-02
-9.335 0.236E-02 0.236E-02
-9.334 0.241E-02 0.241E-02
-9.333 0.246E-02 0.246E-02
-9.332 0.251E-02 0.251E-02
-9.331 0.256E-02 0.256E-02
-9.330 0.261E-02 0.261E-02
-9.329 0.266E-02 0.266E-02
-9.328 0.272E-02 0.271E-02
-9.327 0.277E-02 0.277E-02
-9.326 0.283E-02 0.282E-02
-9.325 0.288E-02 0.288E-02
-9.324 0.294E-02 0.294E-02
-9.323 0.300E-02 0.299E-02
-9.322 0.306E-02 0.305E-02
-9.321 0.312E-02 0.311E-02
-9.320 0.318E-02 0.318E-02
-9.319 0.324E-02 0.324E-02
-9.318 0.331E-02 0.330E-02
-9.317 0.337E-02 0.337E-02
-9.316 0.344E-02 0.343E-02
-9.315 0.350E-02 0.350E-02
-9.314 0.357E-02 0.357E-02
-9.313 0.364E-02 0.364E-02
-9.312 0.371E-02 0.371E-02
-9.311 0.379E-02 0.378E-02
-9.310 0.386E-02 0.386E-02
-9.309 0.394E-02 0.393E-02
-9.308 0.401E-02 0.401E-02
-9.307 0.409E-02 0.409E-02
-9.306 0.417E-02 0.417E-02
-9.305 0.425E-02 0.425E-02
-9.304 0.434E-02 0.433E-02
-9.303 0.442E-02 0.442E-02
-9.302 0.451E-02 0.450E-02
-9.301 0.459E-02 0.459E-02
-9.300 0.468E-02 0.468E-02
-9.299 0.477E-02 0.477E-02
-9.298 0.486E-02 0.486E-02
-9.297 0.496E-02 0.495E-02
-9.296 0.505E-02 0.505E-02
-9.295 0.515E-02 0.515E-02
-9.294 0.525E-02 0.525E-02
-9.293 0.535E-02 0.535E-02
-9.292 0.545E-02 0.545E-02
-9.291 0.556E-02 0.555E-02
-9.290 0.566E-02 0.566E-02
-9.289 0.577E-02 0.577E-02
-9.288 0.588E-02 0.588E-02
-9.287 0.599E-02 0.599E-02
-9.286 0.611E-02 0.610E-02
-9.285 0.622E-02 0.622E-02
-9.284 0.634E-02 0.634E-02
-9.283 0.646E-02 0.646E-02
-9.282 0.659E-02 0.658E-02
-9.281 0.671E-02 0.671E-02
-9.280 0.684E-02 0.683E-02
-9.279 0.697E-02 0.696E-02
-9.278 0.710E-02 0.709E-02
-9.277 0.723E-02 0.723E-02
-9.276 0.737E-02 0.736E-02
-9.275 0.751E-02 0.750E-02
-9.274 0.765E-02 0.764E-02
-9.273 0.779E-02 0.779E-02
-9.272 0.794E-02 0.793E-02
-9.271 0.809E-02 0.808E-02
-9.270 0.824E-02 0.823E-02
-9.269 0.839E-02 0.838E-02
-9.268 0.855E-02 0.854E-02
-9.267 0.871E-02 0.870E-02
-9.266 0.887E-02 0.886E-02
-9.265 0.903E-02 0.903E-02
-9.264 0.920E-02 0.919E-02
-9.263 0.937E-02 0.937E-02
-9.262 0.955E-02 0.954E-02
