E(eV) dos(E) pdos(E)
-10.000 0.207E-04 0.207E-04
-9.999 0.212E-04 0.212E-04
-9.998 0.218E-04 0.217E-04
-9.997 0.223E-04 0.223E-04
-9.996 0.229E-04 0.228E-04
-9.995 0.234E-04 0.234E-04
-9.994 0.240E-04 0.240E-04
-9.993 0.246E-04 0.246E-04
-9.992 0.252E-04 0.252E-04
-9.991 0.258E-04 0.258E-04
-9.990 0.264E-04 0.264E-04
-9.989 0.271E-04 0.271E-04
-9.988 0.277E-04 0.277E-04
-9.987 0.284E-04 0.284E-04
-9.986 0.291E-04 0.291E-04
-9.985 0.298E-04 0.298E-04
-9.984 0.305E-04 0.305E-04
-9.983 0.313E-04 0.313E-04
-9.982 0.321E-04 0.320E-04
-9.981 0.328E-04 0.328E-04
-9.980 0.336E-04 0.336E-04
-9.979 0.344E-04 0.344E-04
-9.978 0.353E-04 0.352E-04
-9.977 0.361E-04 0.361E-04
-9.976 0.370E-04 0.370E-04
-9.975 0.379E-04 0.379E-04
-9.974 0.388E-04 0.388E-04
-9.973 0.397E-04 0.397E-04
-9.972 0.407E-04 0.407E-04
-9.971 0.417E-04 0.416E-04
-9.970 0.427E-04 0.426E-04
-9.969 0.437E-04 0.437E-04
-9.968 0.448E-04 0.447E-04
-9.967 0.458E-04 0.458E-04
-9.966 0.469E-04 0.469E-04
-9.965 0.480E-04 0.480E-04
-9.964 0.492E-04 0.492E-04
-9.963 0.504E-04 0.503E-04
-9.962 0.516E-04 0.515E-04
-9.961 0.528E-04 0.528E-04
-9.960 0.541E-04 0.540E-04
-9.959 0.553E-04 0.553E-04
-9.958 0.567E-04 0.566E-04
-9.957 0.580E-04 0.580E-04
-9.956 0.594E-04 0.593E-04
-9.955 0.608E-04 0.607E-04
-9.954 0.622E-04 0.622E-04
-9.953 0.637E-04 0.636E-04
-9.952 0.652E-04 0.651E-04
-9.951 0.667E-04 0.667E-04
-9.950 0.683E-04 0.683E-04
-9.949 0.699E-04 0.699E-04
-9.948 0.716E-04 0.715E-04
-9.947 0.733E-04 0.732E-04
-9.946 0.750E-04 0.749E-04
-9.945 0.767E-04 0.767E-04
-9.944 0.785E-04 0.785E-04
-9.943 0.804E-04 0.803E-04
-9.942 0.823E-04 0.822E-04
-9.941 0.842E-04 0.841E-04
-9.940 0.862E-04 0.861E-04
-9.939 0.882E-04 0.881E-04
-9.938 0.902E-04 0.901E-04
-9.937 0.923E-04 0.922E-04
-9.936 0.945E-04 0.944E-04
-9.935 0.967E-04 0.966E-04
-9.934 0.989E-04 0.988E-04
-9.933 0.101E-03 0.101E-03
-9.932 0.104E-03 0.103E-03
-9.931 0.106E-03 0.106E-03
-9.930 0.108E-03 0.108E-03
-9.929 0.111E-03 0.111E-03
-9.928 0.113E-03 0.113E-03
-9.927 0.116E-03 0.116E-03
-9.926 0.119E-03 0.119E-03
-9.925 0.122E-03 0.121E-03
-9.924 0.124E-03 0.124E-03
-9.923 0.127E-03 0.127E-03
-9.922 0.130E-03 0.130E-03
-9.921 0.133E-03 0.133E-03
-9.920 0.136E-03 0.136E-03
-9.919 0.139E-03 0.139E-03
-9.918 0.142E-03 0.142E-03
-9.917 0.146E-03 0.146E-03
-9.916 0.149E-03 0.149E-03
-9.915 0.152E-03 0.152E-03
-9.914 0.156E-03 0.156E-03
-9.913 0.159E-03 0.159E-03
-9.912 0.163E-03 0.163E-03
-9.911 0.167E-03 0.167E-03
-9.910 0.171E-03 0.170E-03
-9.909 0.174E-03 0.174E-03
-9.908 0.178E-03 0.178E-03
-9.907 0.182E-03 0.182E-03
-9.906 0.187E-03 0.186E-03
-9.905 0.191E-03 0.191E-03
-9.904 0.195E-03 0.195E-03
-9.903 0.199E-03 0.199E-03
-9.902 0.204E-03 0.204E-03
-9.901 0.208E-03 0.208E-03
-9.900 0.213E-03 0.213E-03
-9.899 0.218E-03 0.218E-03
-9.898 0.223E-03 0.223E-03
-9.897 0.228E-03 0.228E-03
-9.896 0.233E-03 0.233E-03
-9.895 0.238E-03 0.238E-03
-9.894 0.243E-03 0.243E-03
-9.893 0.249E-03 0.249E-03
-9.892 0.254E-03 0.254E-03
-9.891 0.260E-03 0.260E-03
-9.890 0.266E-03 0.266E-03
-9.889 0.272E-03 0.272E-03
-9.888 0.278E-03 0.278E-03
-9.887 0.284E-03 0.284E-03
-9.886 0.290E-03 0.290E-03
-9.885 0.297E-03 0.297E-03
-9.884 0.303E-03 0.303E-03
-9.883 0.310E-03 0.310E-03
-9.882 0.317E-03 0.317E-03
-9.881 0.324E-03 0.324E-03
-9.880 0.331E-03 0.331E-03
-9.879 0.338E-03 0.338E-03
-9.878 0.346E-03 0.346E-03
-9.877 0.353E-03 0.353E-03
-9.876 0.361E-03 0.361E-03
-9.875 0.369E-03 0.369E-03
-9.874 0.377E-03 0.377E-03
-9.873 0.385E-03 0.385E-03
-9.872 0.394E-03 0.394E-03
-9.871 0.402E-03 0.402E-03
-9.870 0.411E-03 0.411E-03
-9.869 0.420E-03 0.420E-03
-9.868 0.429E-03 0.429E-03
-9.867 0.439E-03 0.438E-03
-9.866 0.448E-03 0.448E-03
-9.865 0.458E-03 0.458E-03
-9.864 0.468E-03 0.468E-03
-9.863 0.478E-03 0.478E-03
-9.862 0.488E-03 0.488E-03
-9.861 0.499E-03 0.499E-03
-9.860 0.510E-03 0.509E-03
-9.859 0.521E-03 0.520E-03
-9.858 0.532E-03 0.532E-03
-9.857 0.543E-03 0.543E-03
-9.856 0.555E-03 0.555E-03
-9.855 0.567E-03 0.567E-03
-9.854 0.579E-03 0.579E-03
-9.853 0.592E-03 0.591E-03
-9.852 0.604E-03 0.604E-03
-9.851 0.617E-03 0.617E-03
-9.850 0.631E-03 0.630E-03
-9.849 0.644E-03 0.643E-03
-9.848 0.658E-03 0.657E-03
-9.847 0.672E-03 0.671E-03
-9.846 0.686E-03 0.686E-03
-9.845 0.701E-03 0.700E-03
-9.844 0.716E-03 0.715E-03
-9.843 0.731E-03 0.730E-03
-9.842 0.746E-03 0.746E-03
-9.841 0.762E-03 0.762E-03
-9.840 0.778E-03 0.778E-03
-9.839 0.795E-03 0.794E-03
-9.838 0.812E-03 0.811E-03
-9.837 0.829E-03 0.828E-03
-9.836 0.846E-03 0.845E-03
-9.835 0.864E-03 0.863E-03
-9.834 0.882E-03 0.881E-03
-9.833 0.901E-03 0.900E-03
-9.832 0.920E-03 0.919E-03
-9.831 0.939E-03 0.938E-03
-9.830 0.959E-03 0.958E-03
-9.829 0.979E-03 0.978E-03
-9.828 0.999E-03 0.998E-03
-9.827 0.102E-02 0.102E-02
-9.826 0.104E-02 0.104E-02
-9.825 0.106E-02 0.106E-02
-9.824 0.109E-02 0.108E-02
-9.823 0.111E-02 0.111E-02
-9.822 0.113E-02 0.113E-02
-9.821 0.115E-02 0.115E-02
-9.820 0.118E-02 0.118E-02
-9.819 0.120E-02 0.120E-02
-9.818 0.123E-02 0.123E-02
-9.817 0.125E-02 0.125E-02
-9.816 0.128E-02 0.128E-02
-9.815 0.131E-02 0.130E-02
-9.814 0.133E-02 0.133E-02
-9.813 0.136E-02 0.136E-02
-9.812 0.139E-02 0.139E-02
-9.811 0.142E-02 0.142E-02
-9.810 0.145E-02 0.144E-02
-9.809 0.147E-02 0.147E-02
-9.808 0.151E-02 0.150E-02
-9.807 0.154E-02 0.153E-02
-9.806 0.157E-02 0.157E-02
-9.805 0.160E-02 0.160E-02
-9.804 0.163E-02 0.163E-02
-9.803 0.167E-02 0.166E-02
-9.802 0.170E-02 0.170E-02
-9.801 0.173E-02 0.173E-02
-9.800 0.177E-02 0.177E-02
-9.799 0.180E-02 0.180E-02
-9.798 0.184E-02 0.184E-02
-9.797 0.188E-02 0.188E-02
-9.796 0.192E-02 0.192E-02
-9.795 0.196E-02 0.195E-02
-9.794 0.200E-02 0.199E-02
-9.793 0.204E-02 0.203E-02
-9.792 0.208E-02 0.207E-02
-9.791 0.212E-02 0.212E-02
-9.790 0.216E-02 0.216E-02
-9.789 0.220E-02 0.220E-02
-9.788 0.225E-02 0.225E-02
-9.787 0.229E-02 0.229E-02
-9.786 0.234E-02 0.234E-02
-9.785 0.239E-02 0.238E-02
-9.784 0.243E-02 0.243E-02
-9.783 0.248E-02 0.248E-02
-9.782 0.253E-02 0.253E-02
-9.781 0.258E-02 0.258E-02
-9.780 0.263E-02 0.263E-02
-9.779 0.269E-02 0.268E-02
-9.778 0.274E-02 0.274E-02
-9.777 0.279E-02 0.279E-02
-9.776 0.285E-02 0.285E-02
-9.775 0.291E-02 0.290E-02
-9.774 0.296E-02 0.296E-02
-9.773 0.302E-02 0.302E-02
-9.772 0.308E-02 0.308E-02
-9.771 0.314E-02 0.314E-02
-9.770 0.320E-02 0.320E-02
-9.769 0.327E-02 0.326E-02
-9.768 0.333E-02 0.333E-02
-9.767 0.340E-02 0.339E-02
-9.766 0.346E-02 0.346E-02
-9.765 0.353E-02 0.353E-02
-9.764 0.360E-02 0.360E-02
-9.763 0.367E-02 0.367E-02
-9.762 0.374E-02 0.374E-02
-9.761 0.381E-02 0.381E-02
-9.760 0.389E-02 0.389E-02
-9.759 0.396E-02 0.396E-02
-9.758 0.404E-02 0.404E-02
-9.757 0.412E-02 0.412E-02
-9.756 0.420E-02 0.420E-02
-9.755 0.428E-02 0.428E-02
-9.754 0.436E-02 0.436E-02
-9.753 0.445E-02 0.444E-02
-9.752 0.453E-02 0.453E-02
-9.751 0.462E-02 0.462E-02
-9.750 0.471E-02 0.471E-02
-9.749 0.480E-02 0.480E-02
-9.748 0.489E-02 0.489E-02
-9.747 0.499E-02 0.498E-02
-9.746 0.508E-02 0.508E-02
-9.745 0.518E-02 0.518E-02
-9.744 0.528E-02 0.527E-02
-9.743 0.538E-02 0.538E-02
-9.742 0.548E-02 0.548E-02
-9.741 0.559E-02 0.558E-02
-9.740 0.569E-02 0.569E-02
-9.739 0.580E-02 0.580E-02
-9.738 0.591E-02 0.591E-02
-9.737 0.602E-02 0.602E-02
-9.736 0.614E-02 0.613E-02
-9.735 0.625E-02 0.625E-02
-9.734 0.637E-02 0.637E-02
-9.733 0.649E-02 0.649E-02
-9.732 0.662E-02 0.661E-02
-9.731 0.674E-02 0.674E-02
-9.730 0.687E-02 0.686E-02
-9.729 0.700E-02 0.699E-02
-9.728 0.713E-02 0.712E-02
-9.727 0.726E-02 0.726E-02
-9.726 0.740E-02 0.739E-02
-9.725 0.754E-02 0.753E-02
-9.724 0.768E-02 0.767E-02
-9.723 0.782E-02 0.781E-02
-9.722 0.797E-02 0.796E-02
-9.721 0.811E-02 0.811E-02
-9.720 0.827E-02 0.826E-02
-9.719 0.842E-02 0.841E-02
-9.718 0.858E-02 0.857E-02
-9.717 0.873E-02 0.873E-02
-9.716 0.890E-02 0.889E-02
-9.715 0.906E-02 0.906E-02
-9.714 0.923E-02 0.922E-02
-9.713 0.940E-02 0.939E-02
-9.712 0.957E-02 0.957E-02
-9.711 0.975E-02 0.974E-02
-9.710 0.993E-02 0.992E-02
-9.709 0.101E-01 0.101E-01
-9.708 0.103E-01 0.103E-01
-9.707 0.105E-01 0.105E-01
-9.706 0.107E-01 0.107E-01
-9.705 0.109E-01 0.109E-01
-9.704 0.111E-01 0.111E-01
-9.703 0.113E-01 0.113E-01
-9.702 0.115E-01 0.115E-01
-9.701 0.117E-01 0.117E-01
-9.700 0.119E-01 0.119E-01
-9.699 0.121E-01 0.121E-01
-9.698 0.123E-01 0.123E-01
-9.697 0.126E-01 0.126E-01
-9.696 0.128E-01 0.128E-01
-9.695 0.130E-01 0.130E-01
-9.694 0.133E-01 0.132E-01
-9.693 0.135E-01 0.135E-01
-9.692 0.137E-01 0.137E-01
-9.691 0.140E-01 0.140E-01
-9.690 0.142E-01 0.142E-01
-9.689 0.145E-01 0.145E-01
-9.688 0.147E-01 0.147E-01
-9.687 0.150E-01 0.150E-01
-9.686 0.153E-01 0.153E-01
-9.685 0.156E-01 0.155E-01
-9.684 0.158E-01 0.158E-01
-9.683 0.161E-01 0.161E-01
-9.682 0.164E-01 0.164E-01
-9.681 0.167E-01 0.167E-01
-9.680 0.170E-01 0.170E-01
-9.679 0.173E-01 0.173E-01
-9.678 0.176E-01 0.176E-01
-9.677 0.179E-01 0.179E-01
-9.676 0.182E-01 0.182E-01
-9.675 0.185E-01 0.185E-01
-9.674 0.189E-01 0.189E-01
-9.673 0.192E-01 0.192E-01
-9.672 0.195E-01 0.195E-01
-9.671 0.199E-01 0.199E-01
-9.670 0.202E-01 0.202E-01
-9.669 0.206E-01 0.206E-01
-9.668 0.210E-01 0.209E-01
-9.667 0.213E-01 0.213E-01
-9.666 0.217E-01 0.217E-01
-9.665 0.221E-01 0.221E-01
-9.664 0.225E-01 0.224E-01
-9.663 0.228E-01 0.228E-01
-9.662 0.232E-01 0.232E-01
-9.661 0.236E-01 0.236E-01
-9.660 0.241E-01 0.240E-01
-9.659 0.245E-01 0.245E-01
-9.658 0.249E-01 0.249E-01
-9.657 0.253E-01 0.253E-01
-9.656 0.258E-01 0.257E-01
-9.655 0.262E-01 0.262E-01
-9.654 0.267E-01 0.266E-01
-9.653 0.271E-01 0.271E-01
-9.652 0.276E-01 0.276E-01
-9.651 0.280E-01 0.280E-01
-9.650 0.285E-01 0.285E-01
-9.649 0.290E-01 0.290E-01
-9.648 0.295E-01 0.295E-01
-9.647 0.300E-01 0.300E-01
-9.646 0.305E-01 0.305E-01
-9.645 0.310E-01 0.310E-01
-9.644 0.316E-01 0.316E-01
-9.643 0.321E-01 0.321E-01
-9.642 0.327E-01 0.326E-01
-9.641 0.332E-01 0.332E-01
-9.640 0.338E-01 0.337E-01
-9.639 0.343E-01 0.343E-01
-9.638 0.349E-01 0.349E-01
-9.637 0.355E-01 0.355E-01
-9.636 0.361E-01 0.361E-01
-9.635 0.367E-01 0.367E-01
-9.634 0.373E-01 0.373E-01
-9.633 0.379E-01 0.379E-01
-9.632 0.386E-01 0.386E-01
-9.631 0.392E-01 0.392E-01
-9.630 0.399E-01 0.399E-01
-9.629 0.405E-01 0.405E-01
-9.628 0.412E-01 0.412E-01
-9.627 0.419E-01 0.419E-01
-9.626 0.426E-01 0.426E-01
-9.625 0.433E-01 0.433E-01
-9.624 0.440E-01 0.440E-01
-9.623 0.447E-01 0.447E-01
-9.622 0.455E-01 0.455E-01
-9.621 0.462E-01 0.462E-01
-9.620 0.470E-01 0.470E-01
-9.619 0.478E-01 0.477E-01
-9.618 0.486E-01 0.485E-01
-9.617 0.493E-01 0.493E-01
-9.616 0.502E-01 0.501E-01
-9.615 0.510E-01 0.509E-01
-9.614 0.518E-01 0.518E-01
-9.613 0.527E-01 0.526E-01
-9.612 0.535E-01 0.535E-01
-9.611 0.544E-01 0.544E-01
-9.610 0.553E-01 0.552E-01
-9.609 0.562E-01 0.561E-01
-9.608 0.571E-01 0.570E-01
-9.607 0.580E-01 0.580E-01
-9.606 0.589E-01 0.589E-01
-9.605 0.599E-01 0.599E-01
-9.604 0.608E-01 0.608E-01
-9.603 0.618E-01 0.618E-01
-9.602 0.628E-01 0.628E-01
-9.601 0.638E-01 0.638E-01
-9.600 0.649E-01 0.648E-01
-9.599 0.659E-01 0.659E-01
-9.598 0.669E-01 0.669E-01
-9.597 0.680E-01 0.680E-01
-9.596 0.691E-01 0.691E-01
-9.595 0.702E-01 0.702E-01
-9.594 0.713E-01 0.713E-01
-9.593 0.724E-01 0.724E-01
-9.592 0.736E-01 0.735E-01
-9.591 0.748E-01 0.747E-01
-9.590 0.759E-01 0.759E-01
-9.589 0.771E-01 0.771E-01
-9.588 0.783E-01 0.783E-01
-9.587 0.796E-01 0.795E-01
-9.586 0.808E-01 0.808E-01
-9.585 0.821E-01 0.821E-01
-9.584 0.834E-01 0.833E-01
-9.583 0.847E-01 0.846E-01
-9.582 0.860E-01 0.860E-01
-9.581 0.874E-01 0.873E-01
-9.580 0.887E-01 0.887E-01
-9.579 0.901E-01 0.901E-01
-9.578 0.915E-01 0.915E-01
-9.577 0.929E-01 0.929E-01
-9.576 0.944E-01 0.943E-01
-9.575 0.958E-01 0.958E-01
-9.574 0.973E-01 0.973E-01
-9.573 0.988E-01 0.988E-01
-9.572 0.100E+00 0.100E+00
-9.571 0.102E+00 0.102E+00
-9.570 0.103E+00 0.103E+00
-9.569 0.105E+00 0.105E+00
-9.568 0.107E+00 0.107E+00
-9.567 0.108E+00 0.108E+00
-9.566 0.110E+00 0.110E+00
-9.565 0.112E+00 0.112E+00
-9.564 0.113E+00 0.113E+00
-9.563 0.115E+00 0.115E+00
-9.562 0.117E+00 0.117E+00
-9.561 0.119E+00 0.118E+00
-9.560 0.120E+00 0.120E+00
-9.559 0.122E+00 0.122E+00
-9.558 0.124E+00 0.124E+00
-9.557 0.126E+00 0.126E+00
-9.556 0.128E+00 0.128E+00
-9.555 0.130E+00 0.130E+00
-9.554 0.132E+00 0.132E+00
-9.553 0.134E+00 0.134E+00
-9.552 0.136E+00 0.136E+00
-9.551 0.138E+00 0.138E+00
-9.550 0.140E+00 0.140E+00
-9.549 0.142E+00 0.142E+00
-9.548 0.144E+00 0.144E+00
-9.547 0.146E+00 0.146E+00
-9.546 0.148E+00 0.148E+00
-9.545 0.150E+00 0.150E+00
-9.544 0.153E+00 0.152E+00
-9.543 0.155E+00 0.155E+00
-9.542 0.157E+00 0.157E+00
-9.541 0.159E+00 0.159E+00
-9.540 0.162E+00 0.162E+00
-9.539 0.164E+00 0.164E+00
-9.538 0.167E+00 0.166E+00
-9.537 0.169E+00 0.169E+00
-9.536 0.171E+00 0.171E+00
-9.535 0.174E+00 0.174E+00
-9.534 0.176E+00 0.176E+00
-9.533 0.179E+00 0.179E+00
-9.532 0.182E+00 0.182E+00
-9.531 0.184E+00 0.184E+00
-9.530 0.187E+00 0.187E+00
-9.529 0.190E+00 0.190E+00
-9.528 0.192E+00 0.192E+00
-9.527 0.195E+00 0.195E+00
-9.526 0.198E+00 0.198E+00
-9.525 0.201E+00 0.201E+00
-9.524 0.204E+00 0.204E+00
-9.523 0.207E+00 0.206E+00
-9.522 0.210E+00 0.209E+00
-9.521 0.213E+00 0.212E+00
-9.520 0.216E+00 0.215E+00
-9.519 0.219E+00 0.219E+00
-9.518 0.222E+00 0.222E+00
-9.517 0.225E+00 0.225E+00
-9.516 0.228E+00 0.228E+00
-9.515 0.231E+00 0.231E+00
-9.514 0.235E+00 0.234E+00
-9.513 0.238E+00 0.238E+00
-9.512 0.241E+00 0.241E+00
-9.511 0.245E+00 0.244E+00
-9.510 0.248E+00 0.248E+00
-9.509 0.251E+00 0.251E+00
-9.508 0.255E+00 0.255E+00
-9.507 0.259E+00 0.258E+00
-9.506 0.262E+00 0.262E+00
-9.505 0.266E+00 0.266E+00
-9.504 0.269E+00 0.269E+00
-9.503 0.273E+00 0.273E+00
-9.502 0.277E+00 0.277E+00
-9.501 0.281E+00 0.281E+00
-9.500 0.285E+00 0.285E+00
-9.499 0.289E+00 0.288E+00
-9.498 0.293E+00 0.292E+00
-9.497 0.297E+00 0.296E+00
-9.496 0.301E+00 0.301E+00
-9.495 0.305E+00 0.305E+00
-9.494 0.309E+00 0.309E+00
-9.493 0.313E+00 0.313E+00
-9.492 0.317E+00 0.317E+00
-9.491 0.322E+00 0.322E+00
-9.490 0.326E+00 0.326E+00
-9.489 0.330E+00 0.330E+00
-9.488 0.335E+00 0.335E+00
-9.487 0.339E+00 0.339E+00
-9.486 0.344E+00 0.344E+00
-9.485 0.349E+00 0.349E+00
-9.484 0.353E+00 0.353E+00
-9.483 0.358E+00 0.358E+00
-9.482 0.363E+00 0.363E+00
-9.481 0.368E+00 0.368E+00
-9.480 0.373E+00 0.372E+00
-9.479 0.378E+00 0.377E+00
-9.478 0.383E+00 0.382E+00
-9.477 0.388E+00 0.388E+00
-9.476 0.393E+00 0.393E+00
-9.475 0.398E+00 0.398E+00
-9.474 0.403E+00 0.403E+00
-9.473 0.409E+00 0.408E+00
-9.472 0.414E+00 0.414E+00
-9.471 0.419E+00 0.419E+00
-9.470 0.425E+00 0.425E+00
-9.469 0.430E+00 0.430E+00
-9.468 0.436E+00 0.436E+00
-9.467 0.442E+00 0.442E+00
-9.466 0.447E+00 0.447E+00
-9.465 0.453E+00 0.453E+00
-9.464 0.459E+00 0.459E+00
-9.463 0.465E+00 0.465E+00
-9.462 0.471E+00 0.471E+00
-9.461 0.477E+00 0.477E+00
-9.460 0.483E+00 0.483E+00
-9.459 0.490E+00 0.489E+00
-9.458 0.496E+00 0.496E+00
-9.457 0.502E+00 0.502E+00
-9.456 0.509E+00 0.508E+00
-9.455 0.515E+00 0.515E+00
-9.454 0.522E+00 0.521E+00
-9.453 0.528E+00 0.528E+00
-9.452 0.535E+00 0.535E+00
-9.451 0.542E+00 0.542E+00
-9.450 0.549E+00 0.548E+00
-9.449 0.556E+00 0.555E+00
-9.448 0.563E+00 0.562E+00
-9.447 0.570E+00 0.569E+00
-9.446 0.577E+00 0.577E+00
-9.445 0.584E+00 0.584E+00
-9.444 0.591E+00 0.591E+00
-9.443 0.599E+00 0.598E+00
-9.442 0.606E+00 0.606E+00
-9.441 0.614E+00 0.613E+00
-9.440 0.621E+00 0.621E+00
-9.439 0.629E+00 0.629E+00
-9.438 0.637E+00 0.636E+00
-9.437 0.645E+00 0.644E+00
-9.436 0.653E+00 0.652E+00
-9.435 0.661E+00 0.660E+00
-9.434 0.669E+00 0.668E+00
-9.433 0.677E+00 0.677E+00
-9.432 0.685E+00 0.685E+00
-9.431 0.693E+00 0.693E+00
-9.430 0.702E+00 0.702E+00
-9.429 0.710E+00 0.710E+00
-9.428 0.719E+00 0.719E+00
-9.427 0.728E+00 0.728E+00
-9.426 0.737E+00 0.736E+00
-9.425 0.745E+00 0.745E+00
-9.424 0.754E+00 0.754E+00
-9.423 0.764E+00 0.763E+00
-9.422 0.773E+00 0.772E+00
-9.421 0.782E+00 0.782E+00
-9.420 0.791E+00 0.791E+00
-9.419 0.801E+00 0.800E+00
-9.418 0.810E+00 0.810E+00
-9.417 0.820E+00 0.820E+00
-9.416 0.830E+00 0.829E+00
-9.415 0.839E+00 0.839E+00
-9.414 0.849E+00 0.849E+00
-9.413 0.859E+00 0.859E+00
-9.412 0.869E+00 0.869E+00
-9.411 0.880E+00 0.879E+00
-9.410 0.890E+00 0.890E+00
-9.409 0.900E+00 0.900E+00
-9.408 0.911E+00 0.910E+00
-9.407 0.921E+00 0.921E+00
-9.406 0.932E+00 0.932E+00
-9.405 0.943E+00 0.943E+00
-9.404 0.954E+00 0.953E+00
-9.403 0.965E+00 0.964E+00
-9.402 0.976E+00 0.976E+00
-9.401 0.987E+00 0.987E+00
-9.400 0.998E+00 0.998E+00
-9.399 0.101E+01 0.101E+01
-9.398 0.102E+01 0.102E+01
-9.397 0.103E+01 0.103E+01
-9.396 0.104E+01 0.104E+01
-9.395 0.106E+01 0.106E+01
-9.394 0.107E+01 0.107E+01
-9.393 0.108E+01 0.108E+01
-9.392 0.109E+01 0.109E+01
-9.391 0.111E+01 0.110E+01
-9.390 0.112E+01 0.112E+01
-9.389 0.113E+01 0.113E+01
-9.388 0.114E+01 0.114E+01
-9.387 0.116E+01 0.116E+01
-9.386 0.117E+01 0.117E+01
-9.385 0.118E+01 0.118E+01
-9.384 0.119E+01 0.119E+01
-9.383 0.121E+01 0.121E+01
-9.382 0.122E+01 0.122E+01
-9.381 0.123E+01 0.123E+01
-9.380 0.125E+01 0.125E+01
-9.379 0.126E+01 0.126E+01
-9.378 0.128E+01 0.128E+01
-9.377 0.129E+01 0.129E+01
-9.376 0.130E+01 0.130E+01
-9.375 0.132E+01 0.132E+01
-9.374 0.133E+01 0.133E+01
-9.373 0.135E+01 0.135E+01
-9.372 0.136E+01 0.136E+01
-9.371 0.138E+01 0.138E+01
-9.370 0.139E+01 0.139E+01
-9.369 0.141E+01 0.141E+01
-9.368 0.142E+01 0.142E+01
-9.367 0.144E+01 0.144E+01
-9.366 0.145E+01 0.145E+01
-9.365 0.147E+01 0.147E+01
-9.364 0.148E+01 0.148E+01
-9.363 0.150E+01 0.150E+01
-9.362 0.151E+01 0.151E+01
-9.361 0.153E+01 0.153E+01
-9.360 0.155E+01 0.155E+01
-9.359 0.156E+01 0.156E+01
-9.358 0.158E+01 0.158E+01
-9.357 0.160E+01 0.159E+01
-9.356 0.161E+01 0.161E+01
-9.355 0.163E+01 0.163E+01
-9.354 0.165E+01 0.164E+01
-9.353 0.166E+01 0.166E+01
-9.352 0.168E+01 0.168E+01
-9.351 0.170E+01 0.170E+01
-9.350 0.171E+01 0.171E+01
-9.349 0.173E+01 0.173E+01
-9.348 0.175E+01 0.175E+01
-9.347 0.177E+01 0.177E+01
-9.346 0.179E+01 0.179E+01
-9.345 0.180E+01 0.180E+01
-9.344 0.182E+01 0.182E+01
-9.343 0.184E+01 0.184E+01
-9.342 0.186E+01 0.186E+01
-9.341 0.188E+01 0.188E+01
-9.340 0.190E+01 0.190E+01
-9.339 0.192E+01 0.192E+01
-9.338 0.193E+01 0.193E+01
-9.337 0.195E+01 0.195E+01
-9.336 0.197E+01 0.197E+01
-9.335 0.199E+01 0.199E+01
-9.334 0.201E+01 0.201E+01
-9.333 0.203E+01 0.203E+01
-9.332 0.205E+01 0.205E+01
-9.331 0.207E+01 0.207E+01
-9.330 0.209E+01 0.209E+01
-9.329 0.211E+01 0.211E+01
-9.328 0.213E+01 0.213E+01
-9.327 0.216E+01 0.215E+01
-9.326 0.218E+01 0.218E+01
-9.325 0.220E+01 0.220E+01
-9.324 0.222E+01 0.222E+01
-9.323 0.224E+01 0.224E+01
-9.322 0.226E+01 0.226E+01
-9.321 0.228E+01 0.228E+01
-9.320 0.231E+01 0.230E+01
-9.319 0.233E+01 0.233E+01
-9.318 0.235E+01 0.235E+01
-9.317 0.237E+01 0.237E+01
-9.316 0.239E+01 0.239E+01
-9.315 0.242E+01 0.242E+01
-9.314 0.244E+01 0.244E+01
-9.313 0.246E+01 0.246E+01
-9.312 0.249E+01 0.248E+01
-9.311 0.251E+01 0.251E+01
-9.310 0.253E+01 0.253E+01
-9.309 0.256E+01 0.255E+01
-9.308 0.258E+01 0.258E+01
-9.307 0.260E+01 0.260E+01
-9.306 0.263E+01 0.263E+01
-9.305 0.265E+01 0.265E+01
-9.304 0.268E+01 0.268E+01
-9.303 0.270E+01 0.270E+01
-9.302 0.273E+01 0.272E+01
-9.301 0.275E+01 0.275E+01
-9.300 0.278E+01 0.277E+01
-9.299 0.280E+01 0.280E+01
-9.298 0.283E+01 0.282E+01
-9.297 0.285E+01 0.285E+01
-9.296 0.288E+01 0.288E+01
-9.295 0.290E+01 0.290E+01
-9.294 0.293E+01 0.293E+01
-9.293 0.295E+01 0.295E+01
-9.292 0.298E+01 0.298E+01
-9.291 0.301E+01 0.301E+01
-9.290 0.303E+01 0.303E+01
-9.289 0.306E+01 0.306E+01
-9.288 0.309E+01 0.309E+01
-9.287 0.311E+01 0.311E+01
-9.286 0.314E+01 0.314E+01
-9.285 0.317E+01 0.317E+01
-9.284 0.320E+01 0.320E+01
-9.283 0.322E+01 0.322E+01
-9.282 0.325E+01 0.325E+01
-9.281 0.328E+01 0.328E+01
-9.280 0.331E+01 0.331E+01
-9.279 0.334E+01 0.334E+01
-9.278 0.337E+01 0.336E+01
-9.277 0.339E+01 0.339E+01
-9.276 0.342E+01 0.342E+01
-9.275 0.345E+01 0.345E+01
-9.274 0.348E+01 0.348E+01
-9.273 0.351E+01 0.351E+01
-9.272 0.354E+01 0.354E+01
-9.271 0.357E+01 0.357E+01
-9.270 0.360E+01 0.360E+01
-9.269 0.363E+01 0.363E+01
-9.268 0.366E+01 0.366E+01
-9.267 0.369E+01 0.369E+01
-9.266 0.372E+01 0.372E+01
-9.265 0.375E+01 0.375E+01
-9.264 0.378E+01 0.378E+01
-9.263 0.381E+01 0.381E+01
-9.262 0.385E+01 0.384E+01
